timestamp,emg1,emg2,emg3,emg4,emg5,emg6,emg7,emg8
1584991649.745017,-16,-3,2,-2,-2,1,-1,-3
1584991649.745017,13,18,3,0,-3,0,0,2
1584991649.7599628,7,-1,-3,-2,-2,1,-4,5
1584991649.7599628,-2,-5,2,0,2,-2,-1,-1
1584991649.7611973,-4,3,0,-3,-2,0,4,0
1584991649.7611973,11,0,-1,1,-2,1,0,2
1584991649.7757516,0,-2,-3,-1,3,2,0,-2
1584991649.7757516,-5,1,-5,0,2,1,2,1
1584991649.7825463,11,4,2,2,-1,0,-2,-4
1584991649.7825463,-2,-2,-1,0,-1,0,-3,2
1584991649.796801,-5,-2,-1,-1,-3,-3,0,0
1584991649.796801,1,-1,0,2,-2,-2,-2,2
1584991649.80494,3,-2,1,2,-2,-3,0,2
1584991649.80494,4,-3,-3,0,-2,-2,-1,0
1584991649.8199935,8,3,-3,-2,1,1,-3,-1
1584991649.8199935,-4,0,-3,-1,-1,-1,-1,0
1584991649.8212085,1,-6,0,0,2,0,2,-1
1584991649.8212085,-1,0,-5,-3,-1,1,0,-1
1584991649.834299,-2,-3,1,-1,-3,-3,2,5
1584991649.834299,-5,7,2,2,-3,2,3,2
1584991649.842495,-1,1,0,0,-3,2,-2,-4
1584991649.842495,7,-4,-2,1,2,1,-3,1
1584991649.8567822,-2,-7,-2,1,1,-1,3,4
1584991649.8567822,-5,0,-7,0,2,-3,0,-1
1584991649.8650274,-3,9,0,0,-1,0,-3,-1
1584991649.8650274,3,7,1,1,1,2,1,-1
1584991649.8799937,1,-7,-2,-4,-2,0,-1,1
1584991649.8799937,-5,-5,-4,-3,-3,-4,1,-1
1584991649.8811834,-8,1,-3,-2,3,2,-2,-2
1584991649.8811834,8,-5,-2,-1,-5,-4,3,-3
1584991649.8942807,1,0,-3,-4,-1,-1,2,0
1584991649.8942807,-8,-3,-2,-1,0,4,-3,0
1584991649.9024804,6,2,3,1,1,-1,0,-4
1584991649.9024804,2,-2,-3,-3,0,0,-3,1
1584991649.9169018,0,-5,-3,-2,2,-2,-4,-2
1584991649.9169018,-8,2,2,2,0,0,0,0
1584991649.9250023,15,-4,2,-3,-4,-3,0,-1
1584991649.9250023,0,0,2,1,-1,0,-2,2
1584991649.9399638,-5,-6,-4,-2,-1,-1,-1,0
1584991649.9399638,4,8,7,4,-1,0,-3,-2
1584991649.9412405,-2,-3,-5,-4,1,0,-1,-3
1584991649.9412405,1,-8,-4,1,-1,-1,-3,-1
1584991649.9542453,-1,0,-3,-3,-1,-1,0,-5
1584991649.9542453,-9,0,-3,-1,2,-1,-2,0
1584991649.962503,0,6,-1,-5,-1,4,4,2
1584991649.962503,-1,-5,0,-1,-3,1,1,-1
1584991649.976805,0,2,-1,0,2,3,-1,0
1584991649.976805,5,-6,1,-3,0,1,1,-1
1584991649.9850512,-3,-3,0,1,-1,-2,1,-1
1584991649.9850512,0,9,6,0,1,-4,2,1
1584991649.9998953,8,-4,-5,0,-1,-4,0,-1
1584991649.9998953,-2,0,-2,0,0,-5,2,1
1584991650.0007463,-10,5,2,-1,1,1,1,-4
1584991650.0007463,6,-5,-4,-2,-2,-1,-1,-1
1584991650.0141983,-1,1,-3,-5,-3,-1,-2,1
1584991650.0141983,5,5,5,1,0,2,1,0
1584991650.02251,0,-4,0,-3,2,1,2,1
1584991650.02251,-3,-2,-2,-2,-4,-1,-2,-2
1584991650.036896,-4,2,1,0,2,-1,-1,-2
1584991650.036896,13,2,1,-2,-1,-2,-3,1
1584991650.052608,2,1,-1,-1,-1,-1,0,4
1584991650.052608,-11,-2,-2,-1,-4,-1,-4,-2
1584991650.0599754,-3,-2,-2,-2,-2,1,-2,0
1584991650.0599754,-4,-5,-2,0,1,0,1,1
1584991650.061232,1,1,0,-1,2,3,2,2
1584991650.061232,1,6,4,1,1,0,-2,-1
1584991650.0743165,-5,-3,-1,-4,1,-2,2,-6
1584991650.0743165,6,-5,-2,0,-1,1,0,2
1584991650.0825386,5,-3,-4,-1,-1,-3,3,3
1584991650.0825386,-2,6,5,0,-1,-1,-5,-2
1584991650.0972552,-11,-1,0,1,0,-3,-2,-5
1584991650.0972552,3,-6,-1,-1,-1,0,3,-1
1584991650.105003,3,-14,-3,-4,0,0,2,0
1584991650.105003,-4,1,-4,-2,-3,-1,-3,-4
1584991650.1199841,9,-3,-1,-1,-3,-2,-3,2
1584991650.1199841,-7,-1,6,0,-1,0,0,0
1584991650.121208,-12,3,4,-2,-2,-1,-1,1
1584991650.121208,1,-7,-10,-2,-4,0,0,0
1584991650.134275,1,11,2,0,-1,1,3,0
1584991650.134275,2,0,3,3,-4,0,-2,4
1584991650.1424975,-5,0,3,-1,-5,1,-1,0
1584991650.1424975,-4,-1,2,-1,-4,-1,0,-3
1584991650.156893,15,-4,1,2,-5,2,1,3
1584991650.156893,-1,9,0,-1,-1,-1,-1,6
1584991650.1650589,-2,0,2,0,-1,-1,2,1
1584991650.1650589,-1,-2,-3,2,-1,0,-3,-4
1584991650.1792507,0,-3,-4,1,5,-2,0,-1
1584991650.1792507,9,3,-4,2,1,2,1,3
1584991650.1874332,-3,-1,0,-2,0,0,-2,1
1584991650.1874332,0,0,4,-1,-4,-1,-1,1
1584991650.1942828,3,-3,2,0,-1,2,2,0
1584991650.1942828,0,5,-4,0,1,-3,3,-4
1584991650.2024536,19,2,-5,-3,-4,0,-3,2
1584991650.2024536,-21,-1,2,-3,0,1,0,-3
1584991650.2168665,7,3,0,1,4,-1,3,1
1584991650.2168665,17,0,-2,-1,0,2,3,3
1584991650.2249558,-4,5,1,-1,-3,-1,2,-1
1584991650.2249558,-9,-9,-6,0,0,1,-3,-4
1584991650.239323,5,-5,-2,-4,-1,-1,-2,-1
1584991650.239323,4,9,3,-1,-1,-3,-1,-2
1584991650.2474847,-25,-1,-2,-1,-4,1,1,-7
1584991650.2474847,1,-8,-3,-2,0,-3,-1,-1
1584991650.2542434,4,-6,0,-2,-2,-1,1,-3
1584991650.2542434,-1,-3,1,3,4,2,-1,-6
1584991650.2707195,0,-1,5,1,1,-1,-1,0
1584991650.2707195,-7,1,-2,1,-3,2,1,-4
1584991650.2856867,1,3,-2,1,1,0,-3,0
1584991650.2856867,1,-1,-4,1,-2,-1,-2,1
1584991650.2874177,-1,-2,-3,-4,-3,-4,0,-1
1584991650.2874177,2,-2,-1,-2,2,-3,3,0
1584991650.2992868,-4,2,-2,1,0,-4,0,1
1584991650.2992868,-8,1,1,0,-2,-2,0,4
1584991650.3081312,20,-3,1,-4,-3,0,-4,-1
1584991650.3081312,-8,-1,1,-2,-1,0,0,0
1584991650.314249,-5,10,1,5,-2,-1,2,-3
1584991650.314249,3,-7,-7,-3,1,2,2,3
1584991650.3312836,6,9,5,-2,0,2,-2,-3
1584991650.3312836,8,-2,4,2,-1,-4,-2,2
1584991650.3372338,-14,-1,-1,0,0,-4,-1,-3
1584991650.3372338,12,-5,2,3,1,-4,1,1
1584991650.345717,3,-3,-1,-5,0,0,1,-1
1584991650.345717,-3,4,-1,1,3,-1,4,-5
1584991650.3592455,7,3,2,0,1,-1,-3,-3
1584991650.3592455,-24,-5,-1,-4,1,3,0,-2
1584991650.368183,3,5,-1,2,2,-1,1,0
1584991650.368183,-1,-2,1,0,2,-1,1,-3
1584991650.383204,2,-5,-2,0,-1,0,0,-3
1584991650.383204,1,-2,3,1,1,1,-1,1
1584991650.3849037,-6,1,0,4,-3,-1,0,-4
1584991650.3849037,5,3,-1,-1,0,-2,-1,0
1584991650.3967857,0,-3,1,-3,2,1,0,1
1584991650.3967857,-2,-4,-1,-1,1,-1,-2,-3
1584991650.4057019,-2,8,-2,-2,0,0,0,2
1584991650.4057019,7,0,-3,-1,-4,-3,2,2
1584991650.4193163,5,2,0,-1,-3,1,3,3
1584991650.4193163,6,3,2,2,2,2,3,1
1584991650.4281485,26,2,-2,-1,2,-3,0,4
1584991650.4281485,-56,-14,-3,-3,-3,-4,-4,-12
1584991650.4431634,10,-1,-5,-1,1,-1,-3,7
1584991650.4431634,0,5,5,3,3,5,0,-3
1584991650.4448483,2,6,3,1,-2,5,-1,1
1584991650.4448483,2,6,3,1,-1,-5,1,-5
1584991650.4567904,-1,-3,3,-3,3,-1,0,1
1584991650.4567904,2,-1,-2,-3,-2,-1,2,3
1584991650.4657004,7,-1,1,2,0,-1,1,-1
1584991650.4657004,-4,-2,-4,-3,-3,2,-2,-3
1584991650.4791763,4,2,-3,-1,-3,-1,0,1
1584991650.4791763,-5,5,0,2,2,3,3,-2
1584991650.4880953,1,6,-1,-1,0,1,1,-2
1584991650.4880953,14,1,-2,1,3,-3,-1,1
1584991650.503204,10,-1,-4,-3,-2,0,3,-5
1584991650.503204,14,-1,-3,0,-6,-2,-1,5
1584991650.5050385,-4,-1,1,0,1,2,0,-2
1584991650.5050385,0,-4,1,-3,-1,0,1,-1
1584991650.5167866,-2,-2,1,1,-4,-1,-1,-2
1584991650.5167866,-5,2,-4,1,0,-1,1,-2
1584991650.5257077,2,0,0,-4,-5,-1,-2,1
1584991650.5257077,1,0,-1,-1,-2,1,-1,-2
1584991650.548041,0,2,3,1,-2,2,-2,-1
1584991650.548041,-15,-1,4,1,0,0,3,-4
1584991650.5496984,3,2,5,-5,3,-2,-2,-1
1584991650.5496984,21,-3,-4,0,-2,-3,-4,7
1584991650.5631719,-1,2,3,-1,0,-2,0,1
1584991650.5631719,-12,0,1,-2,2,-3,3,2
1584991650.5644963,14,3,2,4,0,-2,-1,0
1584991650.5644963,-43,-7,-4,-4,0,-3,-3,-13
1584991650.576769,-9,0,-2,0,1,0,2,-3
1584991650.576769,18,0,-4,-1,0,-2,-1,1
1584991650.5856981,-11,3,1,-1,-2,-3,-2,0
1584991650.5856981,8,4,4,-1,1,-2,0,8
1584991650.6081195,0,-9,-1,0,-2,-1,1,-5
1584991650.6081195,-4,-3,-6,-3,-3,-4,-6,-4
1584991650.6101887,-8,6,1,-5,-1,-4,1,2
1584991650.6101887,2,0,1,-2,-1,3,0,4
1584991650.6231015,-7,1,2,-2,-1,4,0,-2
1584991650.6231015,16,-1,-1,-1,-3,2,0,0
1584991650.6247919,-9,-1,1,-1,-1,1,0,1
1584991650.6247919,-17,-3,-3,-3,1,2,1,-3
1584991650.6368139,20,3,1,-1,3,1,-1,10
1584991650.6368139,-6,-3,1,0,-1,-3,-2,-1
1584991650.653169,1,3,0,-3,1,-2,-2,5
1584991650.653169,19,6,-1,3,3,0,6,16
1584991650.659271,-15,-8,-3,-3,-2,0,-9,-17
1584991650.659271,-10,-13,-7,-2,-3,-4,-6,-4
1584991650.668156,10,8,5,0,-1,0,3,6
1584991650.668156,8,6,3,2,-1,3,6,14
1584991650.6832094,11,-1,-1,0,0,-1,1,-1
1584991650.6832094,11,-13,-5,-1,-1,-5,-2,3
1584991650.6849952,6,4,-2,0,2,3,4,5
1584991650.6849952,16,6,6,2,1,3,4,11
1584991650.696788,4,-1,1,-2,0,-3,0,-1
1584991650.696788,-33,-5,-6,-2,0,-6,-5,-3
1584991650.7056773,-13,0,0,-1,3,-5,-3,0
1584991650.7056773,-8,1,-1,2,3,2,-5,-2
1584991650.719288,16,1,4,1,-3,-1,2,1
1584991650.719288,-4,-1,-3,-3,-4,1,0,-2
1584991650.7281482,11,3,-2,2,-2,1,-1,-3
1584991650.7281482,22,-3,-2,-3,-1,-3,-1,6
1584991650.7424896,-4,5,0,-1,-2,1,0,4
1584991650.7424896,7,-3,-2,-1,0,1,1,2
1584991650.749266,-25,-1,4,-2,0,0,-2,-8
1584991650.749266,1,-2,1,2,1,1,-1,0
1584991650.7567441,-4,-5,-5,-6,1,-5,-6,-5
1584991650.7567441,29,-5,1,2,0,2,0,8
1584991650.765677,-15,-11,-4,-3,-1,-2,0,0
1584991650.765677,-40,5,1,-2,-4,2,0,-4
1584991650.779837,47,6,0,1,-1,1,3,3
1584991650.779837,-27,-5,-2,4,-1,2,-4,0
1584991650.7881126,50,-5,1,-4,-6,-1,-3,-1
1584991650.7881126,-11,-14,-2,-2,-4,0,-4,-7
1584991650.8025877,-39,0,-4,-2,2,1,0,-4
1584991650.8025877,25,-6,2,-3,-1,-1,-4,1
1584991650.8092237,-17,0,2,-1,-2,-1,1,-2
1584991650.8092237,-5,-2,-1,-4,-2,-2,-2,-1
1584991650.8168352,-2,0,-1,0,2,4,2,0
1584991650.8168352,-1,-5,-3,-2,-1,0,1,0
1584991650.8257008,-16,-4,-4,-3,-4,-1,-1,-1
1584991650.8257008,-2,-4,-1,0,-1,-3,-2,-7
1584991650.839346,6,-5,-2,1,1,1,-4,0
1584991650.839346,18,-6,-5,-4,-2,2,-2,7
1584991650.8480976,-6,9,1,0,0,-5,2,-1
1584991650.8480976,-19,1,2,-2,1,-1,1,1
1584991650.8625035,27,-13,-3,-4,-3,0,2,2
1584991650.8625035,37,-6,-5,-2,3,2,-2,7
1584991650.8692608,-22,-5,0,-1,4,4,-1,-3
1584991650.8692608,-9,6,-3,0,-7,-9,-3,0
1584991650.885704,1,5,4,-1,1,-1,-2,0
1584991650.885704,-24,-8,-6,-3,1,1,-3,0
1584991650.8873744,11,11,4,2,-1,0,0,-2
1584991650.8873744,-18,-7,-1,-3,-1,-6,-2,-3
1584991650.8992634,-7,1,-3,-1,0,0,2,4
1584991650.8992634,-35,-3,-3,-5,-1,2,1,-5
1584991650.9081511,43,-9,-6,-2,-3,-5,-4,9
1584991650.9081511,-16,5,0,1,-3,-2,-3,-7
1584991650.922765,11,-3,-3,-1,0,0,-1,1
1584991650.922765,-14,4,-1,1,5,-2,-1,-6
1584991650.9307048,-12,-3,-2,-4,0,-2,0,0
1584991650.9307048,-13,8,3,1,-3,-3,-1,-2
1584991650.9367504,2,-1,-3,-3,1,1,4,5
1584991650.9367504,15,-6,-3,0,0,1,-4,-4
1584991650.9456642,-22,3,4,1,-1,-3,1,-4
1584991650.9456642,-5,-1,1,-3,0,0,3,-3
1584991650.9592688,19,-2,-4,-3,3,1,-2,-6
1584991650.9592688,15,-2,-2,0,-1,3,-1,-2
1584991650.9681244,38,0,-3,-4,-11,-6,-4,7
1584991650.9681244,-10,1,0,0,2,-1,-2,-4
1584991650.981814,-36,8,5,0,1,4,0,-7
1584991650.981814,15,-6,-6,-3,1,-2,-1,-3
1584991650.990654,-9,-4,5,5,0,-3,1,2
1584991650.990654,-1,-2,-5,-3,-4,0,0,-6
1584991650.996762,-18,6,-1,-2,0,0,1,-5
1584991650.996762,2,0,-3,2,1,0,-3,1
1584991651.0056129,-11,5,-3,-2,-1,2,2,0
1584991651.0056129,3,-2,1,5,2,-3,-4,-4
1584991651.0192454,6,-1,0,-3,1,0,0,2
1584991651.0192454,-9,3,-2,1,-3,-2,1,5
1584991651.0280664,16,-4,-3,-1,-5,-2,-2,-2
1584991651.0280664,-1,-11,-3,-1,-1,-1,1,2
1584991651.0418105,7,9,1,1,-2,0,0,0
1584991651.0418105,-11,2,5,2,3,3,1,-6
1584991651.0588262,-6,-6,-5,-4,1,1,2,-12
1584991651.0588262,26,2,7,2,0,-2,2,6
1584991651.0603325,-63,2,-2,0,-4,-2,1,-7
1584991651.0603325,64,-8,-6,-4,-2,-1,-1,2
1584991651.0658789,-13,0,-8,-3,2,-1,1,0
1584991651.0658789,-12,0,2,2,3,0,2,5
1584991651.0792766,19,-3,6,2,2,1,-1,-7
1584991651.0792766,7,1,-1,-1,3,0,2,4
1584991651.088146,-21,-5,-5,-2,-2,1,-2,0
1584991651.088146,5,-6,-1,-5,-1,-5,-2,3
1584991651.101788,-4,2,-3,-1,0,-4,-1,-1
1584991651.101788,-1,-2,-1,-1,0,2,-1,2
1584991651.1106715,-3,-3,-5,-4,-5,1,-3,-5
1584991651.1106715,-28,3,2,3,1,0,0,-6
1584991651.1168318,-1,2,3,-1,1,-1,-5,6
1584991651.1168318,2,-11,-3,-2,-3,0,-5,4
1584991651.125686,-5,1,0,-3,-1,-3,1,1
1584991651.125686,4,4,6,3,0,-4,-1,-8
1584991651.1394043,-2,5,-3,0,-3,-1,2,-1
1584991651.1394043,-4,-7,-4,-3,-1,0,-4,-3
1584991651.1480732,0,8,0,-4,-2,0,2,4
1584991651.1480732,13,8,16,1,3,-3,2,2
1584991651.1619375,19,-2,-2,-1,-4,0,-2,-1
1584991651.1619375,4,1,-4,-4,2,-1,0,7
1584991651.1706457,-5,-15,-6,-1,2,-1,-3,-8
1584991651.1706457,-5,1,-4,1,-4,-3,-4,-2
1584991651.176819,5,0,-2,-1,0,-3,0,-1
1584991651.176819,3,3,-2,-2,2,-1,0,0
1584991651.1859272,5,6,6,4,6,-1,2,0
1584991651.1859272,0,-6,-2,-3,-1,-1,4,4
1584991651.1992364,-4,-11,-9,-3,0,4,-3,-11
1584991651.1992364,9,4,-11,-1,3,-1,-3,3
1584991651.2081554,-2,15,28,6,0,-3,0,0
1584991651.2081554,4,-8,-6,2,12,4,8,0
1584991651.2225692,-5,4,3,2,4,2,5,-3
1584991651.2225692,2,-5,0,-7,-26,-5,-1,2
1584991651.2293084,-5,2,-6,-4,-8,-6,-2,1
1584991651.2293084,2,-5,-4,0,2,2,1,2
1584991651.236745,-5,-4,0,3,3,-1,-9,-3
1584991651.236745,0,-1,2,3,4,-1,-1,6
1584991651.2456734,-26,1,-1,0,-2,0,0,-12
1584991651.2456734,6,-9,-6,-3,-1,-3,-3,-12
1584991651.2592502,-26,3,3,1,2,1,1,-3
1584991651.2592502,-6,-3,2,2,2,2,0,-9
1584991651.2681663,-38,3,-4,0,0,-4,-5,0
1584991651.2681663,127,-16,-9,-8,-4,-6,-5,13
1584991651.2824826,-50,-10,0,10,8,4,-1,4
1584991651.2824826,-55,23,18,18,14,-3,1,-8
1584991651.2892196,70,-20,-14,-5,6,8,-7,-3
1584991651.2892196,-37,1,1,-3,-6,-19,3,4
1584991651.3054013,2,-4,-3,0,-1,0,-2,-5
1584991651.3054013,-4,7,1,0,-2,-1,2,3
1584991651.311734,-26,-3,2,-1,-3,-1,2,6
1584991651.311734,-17,-4,-2,0,-1,-2,0,-2
1584991651.3192542,-3,11,-1,-2,2,-2,1,2
1584991651.3192542,-5,-11,-5,-3,4,1,0,0
1584991651.3284013,1,22,6,-2,-3,-3,-3,-2
1584991651.3284013,-1,-1,1,-1,2,-2,1,-2
1584991651.3424728,0,-4,-3,-3,1,0,0,-2
1584991651.3424728,1,-14,-7,0,-1,-2,0,2
1584991651.3492537,-4,7,5,5,0,-1,4,-2
1584991651.3492537,7,18,11,-2,-3,0,3,1
1584991651.3656082,5,-30,-19,-2,-5,1,-1,3
1584991651.3656082,0,35,13,0,-3,0,-5,-5
1584991651.366974,-7,25,6,0,-7,-2,-2,-2
1584991651.366974,7,-50,-13,0,3,-2,0,2
1584991651.3797383,12,38,19,4,14,-1,0,0
1584991651.3797383,-7,-5,4,4,12,5,-2,-4
1584991651.388153,-7,-36,-30,-7,-13,-1,-5,5
1584991651.388153,30,57,28,-4,-17,-10,-1,3
1584991651.4024675,-39,-16,3,-4,-33,0,-3,6
1584991651.4024675,-4,-9,-10,-9,-21,-13,4,-8
1584991651.4092195,12,-9,-5,-3,-6,-5,-4,-3
1584991651.4092195,23,10,4,4,10,2,2,1
1584991651.4256396,-2,-1,-1,4,10,5,-3,-3
1584991651.4256396,5,2,-2,-1,6,3,6,4
1584991651.427281,3,-2,-2,1,7,1,4,6
1584991651.427281,-15,-1,-1,-2,3,-2,3,-3
1584991651.439313,18,-1,0,-2,0,0,2,10
1584991651.439313,20,0,-1,-2,-2,0,0,1
1584991651.4481263,-11,2,0,1,-4,-4,0,-1
1584991651.4481263,-72,-4,-1,-21,-1,-1,-4,-11
1584991651.4617941,121,-1,4,21,-6,6,1,7
1584991651.4617941,-19,-5,-9,6,-19,-27,-8,-6
1584991651.4706976,-62,-14,-5,-8,-3,-9,-2,-4
1584991651.4706976,-128,7,1,4,5,8,3,-12
1584991651.4856515,118,4,1,-2,-1,-4,8,26
1584991651.4856515,-128,0,0,0,5,4,7,-22
1584991651.487375,-19,13,8,5,5,4,-6,-9
1584991651.487375,127,-19,-10,-8,-8,-12,-6,18
1584991651.4992127,-35,-2,1,1,-5,1,0,1
1584991651.4992127,-21,7,2,4,5,0,-2,-3
1584991651.5081382,-23,6,5,-1,-2,-1,0,-2
1584991651.5081382,-10,4,-1,0,-1,-2,1,-2
1584991651.5296633,-3,3,1,0,-1,-1,-3,0
1584991651.5296633,-2,-1,-1,-3,-3,1,-2,3
1584991651.5461452,-4,2,-2,-2,-3,0,1,1
1584991651.5461452,-16,-2,-3,-5,0,-2,-1,1
1584991651.5468655,-17,0,1,-2,-4,-1,0,-1
1584991651.5468655,39,1,1,0,-3,-1,-3,2
1584991651.548342,15,1,-2,1,0,0,-1,4
1584991651.548342,-14,1,-1,0,3,-2,0,-3
1584991651.5592127,6,-4,0,1,-4,1,0,2
1584991651.5592127,-1,5,0,-1,-1,2,1,3
1584991651.568068,43,0,-2,-3,-3,-3,0,4
1584991651.568068,-6,-13,-6,-2,-5,-4,3,-4
1584991651.5817752,-6,29,1,-2,-2,-1,-2,-3
1584991651.5817752,-3,-2,8,3,3,0,-3,1
1584991651.5907078,-17,-12,-1,2,2,-4,-5,-2
1584991651.5907078,-29,-12,-6,-5,0,-2,2,-5
1584991651.6057608,16,9,8,0,1,1,-3,4
1584991651.6057608,7,-3,-2,0,-3,0,-1,2
1584991651.6075017,-33,-13,-2,2,-5,0,1,0
1584991651.6075017,29,7,-3,-2,-3,0,2,-3
1584991651.6192753,11,-3,-3,1,-5,-2,-3,6
1584991651.6192753,-6,-3,-3,0,-1,1,0,-5
1584991651.6281753,-4,-1,-2,-2,-4,2,-1,2
1584991651.6281753,-10,-1,2,0,1,0,1,-5
1584991651.6417565,-5,-3,-1,-2,0,-1,1,-1
1584991651.6417565,8,-1,-1,2,1,2,-1,1
1584991651.6567347,5,0,-1,-4,1,-2,1,0
1584991651.6567347,-1,14,3,-1,1,1,1,0
1584991651.6656344,4,-3,2,3,2,0,4,5
1584991651.6656344,-6,-8,-3,2,0,0,0,-6
1584991651.6670275,-1,-4,0,6,-4,-1,-1,-2
1584991651.6670275,-36,-1,5,1,-2,-1,1,-7
1584991651.6792476,65,2,-1,-1,3,-1,0,19
1584991651.6792476,-11,-9,-6,0,-3,-3,-4,-7
1584991651.6881318,19,-1,4,-1,2,-4,0,6
1584991651.6881318,-22,3,0,0,-1,1,-1,2
1584991651.7018092,-14,-3,-6,2,1,4,0,4
1584991651.7018092,-1,7,6,0,-1,0,-3,-3
1584991651.7262328,-3,-1,1,-1,-2,1,-2,-1
1584991651.7262328,-1,-6,-4,-1,2,-1,1,-2
1584991651.7275426,-5,-2,0,-1,1,-1,2,1
1584991651.7275426,3,-3,-1,0,-7,-1,-1,-2
1584991651.7296083,0,2,0,-2,-1,3,1,2
1584991651.7296083,1,1,-1,-2,-3,1,0,0
1584991651.7392163,-3,1,1,2,-1,1,0,-1
1584991651.7392163,0,4,-1,1,0,4,2,-1
1584991651.7481155,4,-3,-2,-3,0,1,-4,2
1584991651.7481155,-13,-2,3,0,0,-3,-1,-6
1584991651.7623167,7,2,3,-1,-1,1,2,0
1584991651.7623167,1,0,2,2,2,1,-1,5
1584991651.7705634,-5,-2,3,0,-1,-1,4,-1
1584991651.7705634,-10,-4,-4,-3,-1,-2,0,6
1584991651.7855837,-14,-5,-2,1,-1,2,-1,0
1584991651.7855837,30,11,1,-1,3,3,3,-3
1584991651.7869823,-13,2,2,1,1,-2,-2,4
1584991651.7869823,9,0,-1,0,-2,0,3,-2
1584991651.8080707,21,-6,-3,-2,-1,-1,3,6
1584991651.8080707,-30,-4,-4,4,2,-2,-2,-4
1584991651.8102648,-2,4,6,-1,1,-1,2,2
1584991651.8102648,-15,-3,-1,-2,-4,2,-1,-4
1584991651.821751,5,-6,3,1,2,-1,1,2
1584991651.821751,-21,-6,-4,-3,1,3,-3,-7
1584991651.83054,-11,-8,-4,-3,-5,1,2,4
1584991651.83054,4,2,6,2,3,2,-2,0
1584991651.846222,1,1,-3,1,-1,2,0,-2
1584991651.846222,1,-2,-1,-1,0,2,-3,-1
1584991651.8480647,3,-1,-3,-1,2,0,0,1
1584991651.8480647,-12,-1,-2,0,-2,-5,0,-1
1584991651.8592281,0,0,0,1,-1,0,1,-5
1584991651.8592281,-13,1,0,0,-1,1,2,-1
1584991651.8680983,-15,5,0,1,3,-2,0,-1
1584991651.8680983,3,0,-1,-3,0,-5,-1,5
1584991651.881844,25,0,0,2,0,-3,-1,-3
1584991651.881844,23,-4,3,-2,-4,-3,-4,4
1584991651.8967254,-27,-6,-3,-1,0,-3,0,3
1584991651.8967254,25,-8,-4,-1,0,-4,-1,-4
1584991651.9054148,-20,3,-1,-1,1,1,1,2
1584991651.9054148,-11,-3,2,1,-1,1,-1,-2
1584991651.9117174,3,-2,-1,0,-1,-2,-1,-1
1584991651.9117174,4,-2,-6,0,-1,-3,0,1
1584991651.919277,14,8,9,2,2,1,-1,-1
1584991651.919277,4,-7,-3,3,0,-4,-5,-3
1584991651.9357264,-10,-8,-6,-4,3,-2,1,5
1584991651.9357264,2,1,-1,-3,4,0,-2,0
1584991651.9417498,-2,3,3,-2,0,1,1,0
1584991651.9417498,-5,0,1,1,2,1,-4,-3
1584991651.9506476,-6,-5,-3,-1,-3,0,-1,-4
1584991651.9506476,1,3,1,-1,-3,-1,2,4
1584991651.9655917,-3,-3,-1,-2,-4,0,-3,-1
1584991651.9655917,-14,1,-4,0,-3,-1,-2,0
1584991651.9672153,10,3,1,0,2,1,0,-3
1584991651.9672153,6,1,-4,-3,0,-1,1,1
1584991651.9791853,13,1,5,3,2,3,1,2
1584991651.9791853,-28,-6,-4,-3,-2,-3,-1,-1
1584991651.988125,0,2,-1,2,-1,1,-1,-1
1584991651.988125,8,-1,-1,-1,1,-2,-3,0
1584991652.0016901,37,-11,-1,2,-2,-4,-1,5
1584991652.0016901,4,4,-1,-1,-4,-3,0,-2
1584991652.0104992,-44,7,6,5,1,-1,-4,-4
1584991652.0104992,-5,-5,0,-3,0,3,1,-2
1584991652.025647,-4,-2,-3,-1,2,5,0,2
1584991652.025647,2,-3,-4,-4,0,-1,-2,3
1584991652.0273817,-6,0,-2,-4,1,-2,1,-2
1584991652.0273817,-2,-1,0,1,0,-2,3,3
1584991652.0393026,-6,-1,0,1,2,-2,-1,1
1584991652.0393026,0,0,2,-1,-1,-1,0,0
1584991652.0480623,3,-1,4,5,-6,-6,0,1
1584991652.0480623,-1,1,1,2,-1,-1,-1,1
1584991652.0617702,0,-1,3,-1,-1,4,2,-2
1584991652.0617702,-2,1,-2,-2,0,0,-5,-1
1584991652.0706909,-13,-7,-5,2,0,-2,0,1
1584991652.0706909,34,-2,-5,-3,-1,-1,-3,-1
1584991652.0849557,-1,5,-1,-3,2,1,1,1
1584991652.0849557,1,-1,0,2,-3,1,-1,-4
1584991652.0917118,14,2,0,-2,1,0,0,-2
1584991652.0917118,9,-13,-7,-5,-5,-1,-2,9
1584991652.0991771,4,13,8,0,-2,0,1,3
1584991652.0991771,-3,-4,0,-3,-2,1,-2,-8
1584991652.108095,-2,-3,-4,1,-3,-1,-1,3
1584991652.108095,-10,-4,-3,1,1,-3,-1,-1
1584991652.1297307,16,0,2,2,4,-1,0,4
1584991652.1297307,2,-7,-2,-3,1,-1,-4,-9
1584991652.1455362,3,0,-3,-3,-5,-1,2,1
1584991652.1455362,2,-1,-1,-1,-2,1,3,0
1584991652.1468754,-3,0,1,-1,-4,-6,4,-2
1584991652.1468754,-14,-2,-2,1,-1,1,-1,-4
1584991652.1522627,0,2,0,-3,0,0,1,-4
1584991652.1522627,7,6,5,1,-1,-3,-2,0
1584991652.1591759,10,-5,-2,0,-3,-1,1,3
1584991652.1591759,3,-3,1,2,-1,0,-1,-1
1584991652.1680708,3,3,3,-1,-4,-2,-1,2
1584991652.1680708,-6,1,1,0,1,-4,0,0
1584991652.1817636,36,-1,0,0,0,-3,-1,13
1584991652.1817636,-15,0,-1,0,1,-2,-4,-14
1584991652.1905591,-8,-7,-5,-1,-4,-2,0,-9
1584991652.1905591,7,-4,-1,0,-2,-1,-1,-2
1584991652.2130494,7,3,0,0,2,0,0,1
1584991652.2130494,20,1,4,0,-1,-1,-1,3
1584991652.2147563,-53,-17,-6,-4,0,-3,2,-2
1584991652.2147563,-42,22,11,1,0,-2,2,-7
1584991652.2200062,30,4,2,-4,-1,-1,-1,-1
1584991652.2200062,24,-9,-4,-4,0,-1,-2,7
1584991652.2280958,-7,-5,-3,-2,0,-5,-3,-2
1584991652.2280958,-11,-1,-1,1,-3,-4,0,4
1584991652.2417676,-15,-3,-1,-1,-3,0,2,7
1584991652.2417676,7,-1,-2,0,-1,-2,-1,-8
1584991652.2505882,-23,-4,-6,-2,-2,-3,0,-2
1584991652.2505882,13,2,0,1,-4,0,0,4
1584991652.264904,-4,1,2,0,1,2,-2,1
1584991652.264904,-2,-3,-3,-2,5,1,0,-2
1584991652.2717118,0,-6,-1,-3,-3,-3,1,0
1584991652.2717118,-2,5,6,1,-1,1,-1,-5
1584991652.2880373,-16,-7,2,-3,2,2,3,-2
1584991652.2880373,30,0,-4,-4,-2,1,-3,3
1584991652.2896736,-10,-7,-3,0,1,-1,0,1
1584991652.2896736,-13,5,2,4,0,0,-1,0
1584991652.301743,6,-5,-4,0,3,3,1,2
1584991652.301743,-37,-6,-6,-8,0,-3,-6,-7
1584991652.3180346,31,1,-2,-4,-4,-2,1,0
1584991652.3180346,9,-12,-8,-4,-3,-2,-1,-1
1584991652.3248763,-9,3,2,2,1,2,-1,2
1584991652.3248763,2,-7,-1,0,-3,2,0,2
1584991652.3317175,-4,16,0,-2,-3,-1,0,1
1584991652.3317175,6,-5,0,1,1,3,-3,-1
1584991652.348087,-13,-6,-3,0,1,-1,0,-6
1584991652.348087,1,-5,-2,0,0,-2,0,-1
1584991652.3497796,5,1,-1,-3,0,0,2,1
1584991652.3497796,-5,-2,0,-3,-1,0,0,2
1584991652.3623033,7,-8,-5,-3,-2,1,0,-2
1584991652.3623033,-19,1,-3,0,-2,-2,-4,-6
1584991652.3713114,3,2,0,-1,-3,-2,0,4
1584991652.3713114,-12,-4,3,-2,2,-1,-4,-4
1584991652.3849154,15,8,3,0,1,2,4,7
1584991652.3849154,28,1,0,-3,0,1,3,15
1584991652.3917358,28,-5,-4,0,-6,-2,-2,-23
1584991652.3917358,-30,-2,-3,-2,-5,-1,-7,-22
1584991652.408092,12,-1,-2,-7,0,4,3,13
1584991652.408092,15,2,3,1,3,-1,2,2
1584991652.4102092,2,10,8,5,2,-3,3,9
1584991652.4102092,4,-2,-3,-3,-3,0,1,-10
1584991652.421767,7,6,0,1,0,2,0,-1
1584991652.421767,2,-7,-6,-4,-1,0,-5,3
1584991652.4306703,8,-7,-8,2,1,-1,-1,0
1584991652.4306703,12,9,12,-1,1,1,2,2
1584991652.4449422,-3,-7,-4,1,-1,1,-1,3
1584991652.4449422,2,-4,-2,2,6,2,-2,-1
1584991652.451712,4,-12,-10,0,3,2,4,4
1584991652.451712,-16,27,17,3,-6,-6,0,-9
1584991652.4680457,5,-50,-19,-4,8,3,5,2
1584991652.4680457,-2,46,18,-7,-20,-15,-11,-9
1584991652.4697087,0,-7,-2,-12,-18,2,5,3
1584991652.4697087,2,-28,-10,0,5,2,3,0
1584991652.4817488,3,19,0,3,3,-3,-21,-2
1584991652.4817488,1,-4,-1,1,4,-14,-11,-5
1584991652.4967587,-1,2,-1,2,3,-2,3,0
1584991652.4967587,5,-1,-5,-3,5,2,3,1
1584991652.5049684,-9,-5,-2,-1,3,-2,0,0
1584991652.5049684,-19,3,1,-3,2,1,1,-1
1584991652.5117126,7,0,4,-2,-4,0,1,-1
1584991652.5117126,-9,0,0,-18,5,4,1,9
1584991652.528025,40,-16,-17,-4,-32,-10,-5,-3
1584991652.528025,-125,5,5,-1,5,12,5,-7
1584991652.530108,21,25,13,11,5,-5,6,13
1584991652.530108,114,-13,-12,-5,-2,-8,-3,-15
1584991652.5416868,-63,-2,6,-8,2,15,2,-23
1584991652.5416868,-26,6,4,-13,-12,0,1,16
1584991652.5506556,127,-9,-5,-4,1,-4,-5,-2
1584991652.5506556,-15,1,-3,-4,2,2,1,25
1584991652.5648503,35,-10,-2,-1,-6,-6,-7,-13
1584991652.5648503,-98,8,8,7,5,6,4,-2
1584991652.571709,38,-7,-9,-2,-3,-5,-1,-25
1584991652.571709,-20,-1,-4,-3,-1,1,-4,-1
1584991652.595689,-21,6,4,2,4,1,2,5
1584991652.595689,-12,-4,-4,-1,0,-2,2,5
1584991652.5974529,0,7,0,1,-3,-4,5,2
1584991652.5974529,-2,-6,1,-3,1,1,0,-2
1584991652.6019387,9,7,7,-1,1,1,-3,-6
1584991652.6019387,-2,4,1,-1,-4,-3,-4,-7
1584991652.6109884,21,-6,-18,-6,-9,-2,0,2
1584991652.6109884,-35,2,18,7,4,-1,-2,-4
1584991652.6249518,12,29,9,0,0,0,0,0
1584991652.6249518,10,-36,-18,-7,-3,-1,-1,2
1584991652.6317465,-5,15,21,2,-2,-1,0,3
1584991652.6317465,3,-8,1,0,0,0,3,4
1584991652.6480286,1,-13,-6,1,-1,1,1,2
1584991652.6480286,2,4,-5,0,-4,0,0,0
1584991652.6498523,2,0,-9,-2,0,-4,-3,2
1584991652.6498523,1,2,10,0,0,-4,0,4
1584991652.6617682,10,3,1,1,0,0,-4,-3
1584991652.6617682,8,-12,-12,1,3,3,1,8
1584991652.6706913,1,22,9,3,6,0,4,0
1584991652.6706913,-7,11,13,4,1,5,2,-1
1584991652.6849189,-7,-3,1,-5,-14,-10,-10,-11
1584991652.6849189,2,-4,-4,-1,-4,-5,-8,-3
1584991652.6917024,5,-10,-7,-1,0,-4,2,3
1584991652.6917024,4,5,7,3,-1,4,0,1
1584991652.708057,5,6,-1,-1,0,1,-5,-2
1584991652.708057,-3,1,0,5,4,1,-1,-3
1584991652.7101924,1,2,-3,2,0,-2,1,2
1584991652.7101924,1,-2,1,-3,-2,0,3,4
1584991652.729634,-14,1,2,-4,0,1,0,1
1584991652.729634,-5,2,-2,1,-2,0,1,-3
1584991652.7455199,-32,1,1,1,-2,0,1,3
1584991652.7455199,65,-3,-4,-2,1,0,0,9
1584991652.746862,-45,-12,-5,-10,4,1,-3,-14
1584991652.746862,-14,0,-1,9,3,-1,2,-4
1584991652.7525513,-32,18,8,1,2,7,4,-17
1584991652.7525513,3,-6,-4,-9,0,0,1,3
1584991652.7685509,26,-8,-5,-8,-8,-5,-4,16
1584991652.7685509,20,3,2,1,-3,3,2,17
1584991652.7703276,-128,16,9,4,0,1,0,-5
1584991652.7703276,85,-18,-10,-4,3,-4,-4,6
1584991652.781757,-76,8,3,2,2,4,0,-11
1584991652.781757,15,1,-2,0,1,0,-6,-6
1584991652.7906337,-17,-3,2,0,2,3,2,-4
1584991652.7906337,-11,1,2,3,3,1,2,0
1584991652.804978,0,0,0,3,-2,-2,-3,4
1584991652.804978,-3,-1,0,0,-1,3,3,0
1584991652.8116992,2,-1,-3,-2,-3,-2,2,-1
1584991652.8116992,1,-3,-4,0,-1,0,2,2
1584991652.8280225,9,-7,-2,0,-2,-1,-2,-4
1584991652.8280225,5,20,1,-3,-2,-2,0,-1
1584991652.8300748,6,-6,-4,3,1,-3,2,1
1584991652.8300748,0,11,-8,-4,-2,0,0,-5
1584991652.841752,-7,11,24,1,0,3,2,1
1584991652.841752,0,-12,-8,1,-2,-2,-6,0
1584991652.8505435,27,-6,-3,-2,1,0,1,2
1584991652.8505435,-5,-4,2,-1,-1,-2,1,0
1584991652.864886,37,-9,-9,-4,-2,-3,1,2
1584991652.864886,-22,-6,-2,2,1,0,0,3
1584991652.8717003,-29,28,13,3,-2,1,2,-2
1584991652.8717003,-14,-6,-3,0,-1,1,2,-8
1584991652.8880591,40,-2,-3,1,0,0,0,6
1584991652.8880591,28,-4,-3,-1,1,-3,4,2
1584991652.8897257,-30,-4,-2,-1,1,-1,2,6
1584991652.8897257,0,0,-3,3,3,2,1,5
1584991652.9017093,-3,3,1,0,0,5,-4,-2
1584991652.9017093,2,-11,-6,-2,-1,0,-8,-19
1584991652.9105313,-3,-2,2,-1,-3,0,2,2
1584991652.9105313,-7,5,0,-2,1,2,2,3
1584991652.924963,17,-1,-2,0,-4,-1,3,0
1584991652.924963,-3,-1,2,3,-1,-3,-1,1
1584991652.9317336,1,-2,1,0,1,-1,2,-2
1584991652.9317336,0,0,-4,-3,-2,1,1,2
1584991652.948029,-3,4,3,0,2,-1,0,2
1584991652.948029,-34,3,0,1,0,1,-3,-18
1584991652.9497313,51,-5,-2,-1,-2,1,-2,9
1584991652.9497313,19,2,4,0,-3,1,1,5
1584991652.9711,-44,-15,-4,0,-2,0,-2,-4
1584991652.9711,-30,0,0,1,1,1,-2,-9
1584991652.9726627,23,7,2,2,0,-5,1,5
1584991652.9726627,12,4,-2,-4,2,0,1,-1
1584991652.9849024,7,-2,-6,0,-1,-2,-4,0
1584991652.9849024,-12,3,0,2,-1,2,-3,-3
1584991652.9917173,-13,-1,-4,-5,1,0,-6,1
1584991652.9917173,15,7,9,2,0,-2,-1,-3
1584991653.0073552,-13,-4,-1,-1,-1,0,-3,-2
1584991653.0073552,-4,-2,-2,0,0,1,3,-3
1584991653.014184,-4,-4,0,-1,0,-3,3,0
1584991653.014184,-1,-2,3,1,-2,4,1,-3
1584991653.021746,-1,-1,1,0,-2,0,-2,1
1584991653.021746,-3,-4,-1,-1,-1,-1,-2,-3
1584991653.0305028,-3,0,-1,-6,1,0,0,2
1584991653.0305028,0,-1,0,-1,-1,-2,1,-1
1584991653.044885,-4,-4,3,0,-1,-1,0,1
1584991653.044885,-3,-3,-2,-1,-3,-2,-5,-3
1584991653.0517063,10,-6,2,-4,0,-2,0,5
1584991653.0517063,-21,2,-1,-1,2,2,2,-1
1584991653.0674074,5,5,4,4,2,-3,1,3
1584991653.0674074,34,4,0,-2,1,1,-2,-7
1584991653.0741532,-24,-11,-5,-4,-5,-2,-3,-10
1584991653.0741532,-5,1,3,2,2,-2,-1,-4
1584991653.081767,-17,-2,-3,0,2,6,2,2
1584991653.081767,-3,4,1,3,3,0,-4,-1
1584991653.0905886,1,5,2,-1,0,0,-1,-2
1584991653.0905886,0,-5,-1,-1,-1,2,-1,0
1584991653.1058006,0,0,0,1,0,-1,0,-2
1584991653.1058006,-2,-4,-4,-3,-1,-2,2,1
1584991653.113076,-32,-8,-6,0,-7,-1,3,-3
1584991653.113076,56,8,7,3,-1,-4,0,9
1584991653.1273706,-60,-10,-9,-1,2,3,-4,-16
1584991653.1273706,1,1,-3,2,2,0,-2,1
1584991653.13415,6,2,-3,3,3,-3,-5,-1
1584991653.13415,-3,2,-1,0,0,2,1,-2
1584991653.1516714,-2,2,-2,4,2,-1,1,1
1584991653.1516714,1,-1,-3,-3,-1,1,0,1
1584991653.154586,-3,1,1,-2,-3,-4,4,3
1584991653.154586,8,2,-1,-1,-1,0,-1,0
1584991653.164856,-12,-2,-3,-2,1,-2,0,-2
1584991653.164856,-15,2,-2,1,-2,0,0,-4
1584991653.171893,18,-2,1,0,-2,-2,-3,0
1584991653.171893,-12,10,4,-1,0,0,0,0
1584991653.1877759,19,0,-2,-3,-4,2,1,0
1584991653.1877759,-13,-15,-7,-4,-3,-2,-3,5
1584991653.196207,-9,4,1,-3,4,0,0,-1
1584991653.196207,-4,0,0,-1,1,-1,1,1
1584991653.2104971,-1,3,3,0,-1,2,0,1
1584991653.2104971,7,-4,-5,0,-3,-1,1,2
1584991653.2128932,13,13,12,7,1,0,3,-6
1584991653.2128932,26,-3,-2,0,-5,-2,0,5
1584991653.2248163,-10,1,-2,1,-1,-2,1,-6
1584991653.2248163,33,-1,-4,-1,-3,-2,-2,5
1584991653.2316923,3,0,-2,0,0,-1,0,-4
1584991653.2316923,-6,-4,2,2,0,0,-1,-5
1584991653.2473135,2,1,-3,-2,-5,1,-2,-1
1584991653.2473135,8,-5,-4,1,-2,2,-3,-4
1584991653.2541482,1,0,4,-3,0,-1,0,-7
1584991653.2541482,-8,-2,-2,1,4,0,-3,-12
1584991653.2703717,14,2,2,1,2,1,-1,2
1584991653.2703717,-8,-1,2,1,0,1,-2,-3
1584991653.2766926,16,-12,-9,-5,1,-3,-1,5
1584991653.2766926,15,0,0,-1,1,-1,-4,-7
1584991653.2849014,11,2,2,-1,1,-1,-4,5
1584991653.2849014,-17,2,-3,1,0,1,0,-1
1584991653.291701,-8,-1,-2,-4,-4,0,-2,0
1584991653.291701,4,0,1,1,1,2,3,1
1584991653.3073518,0,-1,0,2,-3,0,1,-1
1584991653.3073518,0,-1,-1,2,-2,-2,1,-3
1584991653.3217318,-13,2,3,3,0,-2,-3,-1
1584991653.3217318,21,8,1,-3,0,2,1,3
1584991653.3311815,-11,-3,-5,-3,-1,3,-2,-2
1584991653.3311815,-19,-4,-4,-3,-1,-2,-5,-3
1584991653.3329315,-5,-1,0,-1,0,1,-1,4
1584991653.3329315,-15,2,2,3,3,-1,3,-6
1584991653.3448522,28,3,1,-2,0,1,-3,4
1584991653.3448522,2,-3,-9,-6,-7,-3,-6,0
1584991653.3517516,-11,-2,1,-2,-3,1,1,-3
1584991653.3517516,-23,-1,2,-1,-1,3,2,5
1584991653.367367,19,-2,-3,-1,2,0,1,2
1584991653.367367,11,6,-2,-1,-1,-2,-2,-9
1584991653.381728,-7,-10,-5,-3,-4,-3,-2,1
1584991653.381728,-25,1,0,-1,3,2,-2,1
1584991653.390483,2,6,-1,-2,-3,1,-4,-5
1584991653.390483,0,0,-1,1,-3,-3,3,3
1584991653.3920577,-12,2,3,0,-3,-3,2,-6
1584991653.3920577,41,-3,0,-3,-3,1,1,14
1584991653.4048755,5,1,-3,0,-1,-1,1,-3
1584991653.4048755,-2,-4,1,-1,-3,0,-1,2
1584991653.4117103,-3,-1,-4,-5,2,1,2,2
1584991653.4117103,-3,0,1,-1,2,3,2,-2
1584991653.4273894,-21,-1,2,1,-2,0,0,-2
1584991653.4273894,3,3,1,1,-1,-1,1,2
1584991653.434134,3,-1,3,2,0,-1,1,-2
1584991653.434134,-19,0,3,-1,-2,0,2,6
1584991653.450501,7,-4,-5,-5,-1,-3,-1,-4
1584991653.450501,-9,-5,-2,-3,1,-4,-5,-3
1584991653.4522948,8,3,0,-1,5,2,3,2
1584991653.4522948,-14,2,2,-1,-1,-1,-1,-11
1584991653.4648576,25,1,3,1,-2,2,-3,9
1584991653.4648576,40,-4,-4,-2,-1,-1,-1,6
1584991653.4716923,-61,2,-3,-5,0,0,0,-9
1584991653.4716923,-25,-1,0,1,8,1,-1,5
1584991653.4873667,-5,0,1,-1,2,-2,1,-9
1584991653.4873667,-12,2,0,-1,-3,0,0,-5
1584991653.4941673,-41,-5,-2,-5,-2,-3,-5,2
1584991653.4941673,43,-1,-8,-3,0,1,0,9
1584991653.510619,-12,1,-3,1,1,5,2,0
1584991653.510619,13,9,-2,2,-2,-1,1,0
1584991653.5123262,5,-2,-1,0,0,0,2,5
1584991653.5123262,-11,5,1,1,-4,3,-1,0
1584991653.5248797,-9,0,2,0,0,1,3,-5
1584991653.5248797,6,-4,-4,1,0,-1,-2,3
1584991653.5316396,8,0,-4,-2,6,3,3,5
1584991653.5316396,-31,2,-3,-2,0,2,-4,-1
1584991653.5470939,3,-7,-4,1,-1,-1,-3,-4
1584991653.5470939,64,-1,-3,-4,-1,-5,-1,10
1584991653.555738,-18,-2,-1,1,1,-1,0,-2
1584991653.555738,-30,8,0,4,1,2,1,0
1584991653.571171,-8,7,4,1,3,0,-2,-11
1584991653.571171,28,-10,-8,-4,0,0,2,10
1584991653.572663,-40,1,2,-1,0,1,0,-9
1584991653.572663,-1,-4,0,4,-2,-3,-1,-4
1584991653.5848877,-28,-1,-4,-1,2,-3,0,-13
1584991653.5848877,-3,-2,0,-3,-3,-1,-3,0
1584991653.5916955,-5,-1,-4,-4,0,-2,1,2
1584991653.5916955,-6,-1,2,0,3,3,-1,-5
1584991653.6073217,-4,-7,0,3,10,-1,-1,1
1584991653.6073217,1,9,-4,0,-6,-3,-2,0
1584991653.614123,2,18,21,3,-2,1,8,4
1584991653.614123,4,15,12,3,13,5,0,-2
1584991653.630547,5,-24,-22,-6,-16,-7,-5,2
1584991653.630547,0,39,37,-1,-13,-6,1,-6
1584991653.6323187,5,4,-4,-2,1,2,1,1
1584991653.6323187,-4,-9,-8,1,6,-1,-1,-3
1584991653.6442566,2,-4,-4,1,3,3,1,-1
1584991653.6442566,-3,-3,-1,2,4,-1,3,1
1584991653.6530218,-2,-5,-1,-2,4,1,-2,3
1584991653.6530218,-1,-1,2,0,2,1,1,-4
1584991653.6673706,1,2,-1,-3,1,-1,1,1
1584991653.6673706,-1,1,-1,1,3,-1,2,0
1584991653.674148,14,0,5,0,1,-2,-1,4
1584991653.674148,-47,-1,-1,-1,-1,-2,1,-7
1584991653.6905413,-23,5,4,-5,-3,-1,0,-3
1584991653.6905413,-6,-1,-3,-3,-3,-5,0,5
1584991653.692215,-31,2,4,15,11,5,3,-16
1584991653.692215,-14,-2,0,5,-24,-3,2,5
1584991653.7041316,127,-27,-17,-8,5,-14,-10,19
1584991653.7041316,-128,2,7,3,-17,5,-5,-29
1584991653.7130344,127,23,8,-18,-10,10,3,0
1584991653.7130344,-31,-14,-15,-8,-4,-10,-3,4
1584991653.727317,-37,7,3,2,4,3,2,6
1584991653.727317,-34,9,2,3,6,3,5,-3
1584991653.7341304,-35,2,1,2,2,0,4,-5
1584991653.7341304,-21,2,6,2,2,0,1,0
1584991653.7505107,-7,-1,-1,2,1,0,-2,0
1584991653.7505107,2,0,-1,1,2,0,0,2
1584991653.752159,6,-8,-1,-1,0,3,1,3
1584991653.752159,4,3,-4,0,-1,0,0,-3
1584991653.7641711,13,2,5,3,-3,2,-2,-1
1584991653.7641711,5,-12,-6,1,-2,1,-3,1
1584991653.773033,5,20,8,-4,-5,2,-1,1
1584991653.773033,-5,1,6,5,2,0,2,-1
1584991653.7873495,2,-14,-7,-5,-2,-3,3,1
1584991653.7873495,-10,12,4,-1,-1,-2,-1,0
1584991653.7941844,0,-11,-3,-4,-3,-1,2,3
1584991653.7941844,0,-7,1,3,-1,-3,-3,-4
1584991653.8109906,25,-5,-1,0,0,1,-4,3
1584991653.8109906,12,10,-1,1,2,0,2,3
1584991653.8129852,-32,5,1,6,21,8,5,1
1584991653.8129852,-4,31,21,-1,-12,-6,-4,-7
1584991653.833055,-3,-28,-21,-13,-31,-5,-4,-2
1584991653.833055,17,27,22,7,8,2,3,-1
1584991653.8348083,30,9,11,4,0,4,6,7
1584991653.8348083,0,10,-8,-8,1,3,-2,-8
1584991653.8473642,1,-10,-7,-3,-11,-6,-5,-9
1584991653.8473642,-9,-3,-4,-3,-1,-2,-3,-7
1584991653.8541727,3,0,1,0,5,-1,0,3
1584991653.8541727,-21,-4,3,3,9,1,4,2
1584991653.8780775,-3,-1,1,-1,7,0,1,-3
1584991653.8780775,-8,2,0,2,-1,1,1,0
1584991653.880436,21,-1,1,-4,0,0,3,9
1584991653.880436,-99,2,4,2,-1,2,0,-22
1584991653.8841581,-23,3,0,-1,1,-2,0,0
1584991653.8841581,87,-4,-4,2,-1,-3,3,39
1584991653.8930573,29,6,1,13,3,6,-2,-8
1584991653.8930573,-10,-8,-4,-18,-10,6,-5,-14
1584991653.9073613,-54,6,3,1,2,-3,1,-12
1584991653.9073613,-4,6,4,-1,2,3,3,0
1584991653.9141407,-100,9,8,1,8,5,6,4
1584991653.9141407,116,-11,-12,-8,-8,-24,-6,0
1584991653.9302943,-11,-10,-7,9,-1,0,-2,3
1584991653.9302943,5,6,-1,-7,1,0,1,0
1584991653.944889,-30,7,8,-2,-1,2,2,-1
1584991653.944889,-26,7,-1,5,-1,0,-1,-15
1584991653.94631,5,1,0,-2,0,2,0,2
1584991653.94631,-4,-5,-2,-1,2,-1,0,1
1584991653.9530346,0,0,3,-3,0,1,2,1
1584991653.9530346,3,0,-1,3,0,2,0,-2
1584991653.9673605,1,-2,-3,-1,-3,-1,-1,2
1584991653.9673605,4,0,1,-3,0,-1,2,-1
1584991653.9817302,0,-1,3,0,-3,-3,0,-2
1584991653.9817302,-13,-2,0,-3,-5,-1,1,-3
1584991653.9898236,8,6,-4,-2,1,1,0,-1
1584991653.9898236,-8,0,-1,1,-2,0,-4,-3
1584991653.9967105,-4,-10,-5,-3,-3,1,2,4
1584991653.9967105,-40,-6,-2,-4,0,-2,-4,-4
1584991654.0041747,-1,-1,1,-2,-1,-1,-2,1
1584991654.0041747,-20,2,-8,-1,-1,-3,-1,2
1584991654.0130155,-37,-8,-4,1,-1,2,3,-15
1584991654.0130155,-82,3,4,1,3,3,1,-6
1584991654.0273523,122,4,7,-5,-4,-5,-4,23
1584991654.0273523,-22,-5,-5,-1,-1,-1,0,-2
1584991654.0341277,-30,-10,-5,0,2,3,-1,-5
1584991654.0341277,-10,1,-2,2,1,3,0,2
1584991654.0498736,-1,-1,0,-4,-3,-1,4,-2
1584991654.0498736,-3,-1,3,1,2,-2,-4,-2
1584991654.0566957,0,1,-3,3,-1,-1,-2,2
1584991654.0566957,3,0,1,-1,1,1,-3,1
1584991654.0641267,-2,-2,-4,0,-2,-2,-2,-1
1584991654.0641267,5,-1,0,2,-3,1,-3,-2
1584991654.0730267,-3,-3,1,0,-2,-1,4,-1
1584991654.0730267,-5,1,3,-1,0,0,0,-2
1584991654.0873516,1,1,-4,-1,1,-1,-1,-1
1584991654.0873516,11,6,-1,-1,0,0,-2,-3
1584991654.0941586,-1,1,2,2,1,-5,-2,1
1584991654.0941586,-5,-3,1,0,0,-1,-1,0
1584991654.1099274,-4,-1,1,-1,-2,1,2,0
1584991654.1099274,18,2,3,2,1,0,1,-1
1584991654.1167128,-22,-1,-1,-2,-1,-1,1,0
1584991654.1167128,47,-1,-1,1,1,1,0,3
1584991654.132976,-12,-6,-7,0,2,-3,-5,-12
1584991654.132976,21,-4,-3,-3,-2,-2,0,3
1584991654.1346564,-7,6,0,-2,1,4,0,3
1584991654.1346564,-35,0,-1,4,1,3,3,0
1584991654.1470892,55,1,2,1,1,-4,-2,1
1584991654.1470892,37,-5,-3,-2,-5,-6,-6,5
1584991654.1556525,-8,4,-1,3,0,2,0,2
1584991654.1556525,-10,0,-3,2,1,1,2,-2
1584991654.1698751,-4,-2,0,2,-3,1,-2,0
1584991654.1698751,-2,0,-3,0,1,4,0,-1
1584991654.176725,-2,0,-2,-1,2,-3,4,4
1584991654.176725,-4,-2,-2,0,-1,-2,-1,-2
1584991654.1930137,-10,0,-3,0,-4,-1,3,-3
1584991654.1930137,1,-1,-2,-3,-1,-1,0,1
1584991654.1945748,7,3,1,-2,-1,-1,7,-2
1584991654.1945748,1,-1,3,0,-2,-1,-1,-5
1584991654.2073057,4,-1,2,0,-1,-1,-1,1
1584991654.2073057,2,-2,2,-1,0,-1,-3,0
1584991654.2141254,-1,2,0,0,2,-2,-4,-1
1584991654.2141254,0,-1,0,1,4,2,-4,-5
1584991654.2298431,-2,2,-3,-4,-3,1,-1,-4
1584991654.2298431,-3,0,0,-1,-3,3,2,2
1584991654.2367077,-2,3,1,-2,3,2,2,0
1584991654.2367077,-3,-3,-1,4,-1,1,0,-3
1584991654.260488,3,2,3,-1,-2,2,-2,1
1584991654.260488,7,-2,0,-1,0,0,-3,6
1584991654.2623363,-45,-3,-3,0,0,1,-1,-4
1584991654.2623363,-9,-3,-2,-3,-2,3,3,-3
1584991654.2673192,-6,2,4,5,0,-2,0,-1
1584991654.2673192,7,-2,-1,-6,-3,0,-3,2
1584991654.2741318,-10,-1,-2,-3,-2,3,2,-7
1584991654.2741318,1,-2,0,1,1,1,3,0
1584991654.2896776,-3,-1,1,-1,-1,-5,-2,-3
1584991654.2896776,-21,0,3,0,-1,0,-2,-2
1584991654.3055015,4,0,5,1,2,0,3,0
1584991654.3055015,44,-6,-5,-4,-1,2,-4,0
1584991654.3129652,25,2,2,2,-1,-1,-3,3
1584991654.3129652,-19,-2,0,2,3,-1,-1,-2
1584991654.314623,-7,-3,2,0,1,1,-1,-2
1584991654.314623,-5,-1,3,1,0,-2,0,0
1584991654.327352,-1,2,-1,1,3,2,3,-5
1584991654.327352,-2,-3,-3,-3,1,-2,-1,-1
1584991654.33411,-1,6,3,0,0,1,1,2
1584991654.33411,1,-3,-3,-1,-4,0,1,-3
1584991654.3498452,1,-1,0,2,-3,2,-1,1
1584991654.3498452,2,-1,3,0,0,-1,1,0
1584991654.35671,-19,-3,1,1,2,-2,1,5
1584991654.35671,3,-4,1,1,-1,-1,0,-1
1584991654.3730135,-14,-5,-1,-2,1,-3,-2,-7
1584991654.3730135,0,0,-3,-2,1,-2,-2,-1
1584991654.374415,0,1,-2,0,4,2,-1,0
1584991654.374415,12,0,2,-4,-2,-1,1,-1
1584991654.3873413,-4,-3,-3,-1,0,-1,-1,-7
1584991654.3873413,0,1,0,-2,2,0,0,5
1584991654.3941553,1,3,-2,-5,2,1,3,1
1584991654.3941553,-4,0,1,-1,0,1,2,0
1584991654.4104097,-29,1,1,1,0,-4,1,-2
1584991654.4104097,-3,-1,-2,-1,-2,0,-1,3
1584991654.4167128,14,-5,-6,-5,-2,-2,1,-4
1584991654.4167128,25,-5,-6,-1,-6,-2,-2,12
1584991654.4329836,-40,8,4,1,3,0,-3,-7
1584991654.4329836,33,-6,-4,-1,-1,0,2,3
1584991654.4346654,-29,-4,-1,-2,1,-2,-5,-4
1584991654.4346654,-7,1,-2,-3,-1,0,0,-3
1584991654.4473455,-16,-3,-3,-2,2,2,3,-2
1584991654.4473455,-1,-2,-6,-1,-2,-1,-2,5
1584991654.454069,4,2,1,-3,-1,2,2,5
1584991654.454069,5,1,0,0,0,-1,2,-2
1584991654.469839,10,3,2,-1,-1,-2,-4,1
1584991654.469839,-5,-5,-3,0,1,1,-2,-4
1584991654.476675,2,-2,1,3,1,0,1,4
1584991654.476675,-2,-1,1,2,-1,2,-3,0
1584991654.4929972,-1,1,0,-4,-6,-4,2,0
1584991654.4929972,-7,-1,0,-4,-1,-3,-1,3
1584991654.4947085,-4,-1,1,-3,1,2,2,0
1584991654.4947085,12,0,-1,0,1,0,0,1
1584991654.507319,35,-3,0,-2,2,-2,-1,1
1584991654.507319,-7,-3,-2,-1,1,-2,-2,-2
1584991654.514097,11,2,-3,0,0,1,1,5
1584991654.514097,30,3,-3,-4,2,-1,0,6
1584991654.5295708,1,0,3,0,0,2,0,-7
1584991654.5295708,-8,-1,-4,-2,-2,-6,-4,1
1584991654.5379326,-3,-1,-2,-2,-1,3,1,4
1584991654.5379326,3,-3,-1,0,0,-1,-1,2
1584991654.5530105,2,1,2,-2,1,2,2,2
1584991654.5530105,-38,2,2,1,-2,0,-3,-3
1584991654.554759,-2,5,1,2,1,0,2,0
1584991654.554759,3,4,1,-2,-3,0,-1,1
1584991654.5673692,2,1,2,-1,-1,-4,-1,-3
1584991654.5673692,18,-3,-5,-2,5,1,0,3
1584991654.5817137,4,1,2,-3,1,0,2,3
1584991654.5817137,-9,2,1,-4,2,1,-2,-3
1584991654.5899355,0,-3,2,-2,0,-1,-1,-5
1584991654.5899355,-8,-3,2,-1,-2,0,-3,-2
1584991654.5966825,7,-1,-1,1,1,2,0,1
1584991654.5966825,-10,-3,-1,-1,0,1,0,-13
1584991654.6129792,13,-1,-3,0,-1,0,-1,15
1584991654.6129792,23,3,-2,-2,-5,-1,0,3
1584991654.6146586,-31,-7,0,3,1,0,-3,-10
1584991654.6146586,-13,-3,-2,0,0,-1,-3,-1
1584991654.626701,19,-1,-1,-3,0,-4,-5,1
1584991654.626701,-2,-3,-1,-5,-2,-1,-6,-2
1584991654.6356676,4,4,3,2,4,1,4,5
1584991654.6356676,5,3,0,-1,0,0,0,-9
1584991654.6497488,4,0,1,0,-2,-1,-2,-6
1584991654.6497488,8,0,0,1,-1,-3,0,4
1584991654.656802,-2,-3,-1,-4,1,0,-2,0
1584991654.656802,-7,1,-3,-1,-5,4,-2,0
1584991654.6729474,10,3,0,1,-1,-1,1,0
1584991654.6729474,-26,-2,-1,-1,2,-1,-2,0
1584991654.6747787,-7,-4,2,2,0,-1,2,-1
1584991654.6747787,8,3,1,1,1,-1,-1,-1
1584991654.6867194,11,-4,-1,-5,-2,-5,0,1
1584991654.6867194,-5,0,-2,0,-1,-2,2,2
1584991654.6956024,57,5,2,2,-1,1,1,7
1584991654.6956024,-27,-9,-8,-5,-6,0,-6,-7
1584991654.7104213,50,-2,-5,-6,-2,-5,0,15
1584991654.7104213,7,0,1,2,-1,0,2,-5
1584991654.716611,-77,-4,1,-3,1,1,3,-8
1584991654.716611,24,-1,2,-2,-1,-4,0,16
1584991654.7329051,50,4,2,-1,2,2,4,-10
1584991654.7329051,-32,-13,-4,-1,-2,-2,-3,-1
1584991654.7345917,-6,5,-1,-2,0,2,0,-6
1584991654.7345917,-15,3,1,2,0,2,1,-2
1584991654.7466538,-47,-1,1,4,0,0,-1,-4
1584991654.7466538,61,1,2,-4,-4,-2,-1,2
1584991654.755479,-51,4,4,-4,1,-2,5,2
1584991654.755479,-42,2,2,1,3,3,1,-10
1584991654.778057,48,-1,2,-1,1,-1,2,5
1584991654.778057,-24,-27,-15,-8,-8,-9,-8,4
1584991654.7800677,-15,6,1,2,-4,0,9,-3
1584991654.7800677,-6,-1,-1,1,2,3,-4,7
1584991654.7928996,6,3,-4,0,2,-3,-3,-5
1584991654.7928996,23,-3,1,6,-5,-4,-4,12
1584991654.7943878,-31,-5,0,6,7,4,0,-11
1584991654.7943878,-1,4,-6,-9,0,-3,0,0
1584991654.8066516,-2,0,0,8,8,2,-2,0
1584991654.8066516,-15,0,-1,-1,-2,2,3,0
1584991654.8154566,0,-1,-1,-1,2,-1,0,0
1584991654.8154566,12,1,-4,0,-5,-1,0,0
1584991654.82974,-8,-2,-2,-3,1,-1,-3,-2
1584991654.82974,0,-4,-5,-1,-2,0,2,-5
1584991654.8366616,-73,5,1,2,0,-3,2,-11
1584991654.8366616,95,-2,-1,-1,-2,-3,-2,13
1584991654.8604422,-50,-10,-2,0,-3,-1,-5,-5
1584991654.8604422,15,2,0,2,-1,-2,-2,0
1584991654.8619614,-16,6,1,1,0,1,-1,1
1584991654.8619614,32,-2,-3,-1,1,3,0,13
1584991654.8666403,-5,-8,-5,-2,-3,-1,-2,-15
1584991654.8666403,-16,-2,1,-3,0,1,3,-4
1584991654.8755689,-46,4,1,3,1,1,2,2
1584991654.8755689,7,2,-1,-3,-2,-5,-3,1
1584991654.8898811,-11,-10,-2,0,-2,-1,2,0
1584991654.8898811,-29,2,-4,-5,-5,-1,-1,1
1584991654.9040964,36,4,3,1,0,2,1,10
1584991654.9040964,-2,6,6,0,1,1,-1,-1
1584991654.9123456,-16,-2,-2,1,-1,-4,-1,0
1584991654.9123456,3,-3,-1,0,-1,-1,-1,-2
1584991654.919127,1,4,-1,-1,0,-1,1,-2
1584991654.919127,7,-2,-1,-1,-1,1,-1,2
1584991654.9266944,-2,-3,-2,-3,-5,-1,-1,-5
1584991654.9266944,-2,-2,-4,-1,0,3,-3,0
1584991654.9355874,5,0,-3,-1,-2,2,-1,2
1584991654.9355874,-23,-4,3,0,-1,5,1,1
1584991654.9497952,-24,3,-1,1,0,0,1,-7
1584991654.9497952,20,-1,2,-2,2,-2,-2,4
1584991654.956712,24,-8,-1,-2,-1,-2,1,-4
1584991654.956712,3,4,-3,-2,0,-2,-1,5
1584991654.9723089,-22,-6,-1,-1,0,1,-3,-2
1584991654.9723089,-13,1,6,-1,1,-1,-1,-5
1584991654.987279,-39,-3,-1,-1,0,1,-1,-2
1584991654.987279,58,1,-2,-2,-3,0,-1,0
1584991654.9901083,-12,-4,-1,-1,2,0,-1,-8
1584991654.9901083,1,3,4,0,-1,-1,2,1
1584991655.0118897,-5,2,-3,-1,-1,4,2,1
1584991655.0118897,13,4,-4,2,0,1,-3,3
1584991655.0136576,-30,1,-1,-2,-2,-5,-4,-4
1584991655.0136576,-28,-4,0,3,0,-1,-1,0
1584991655.0166857,24,2,2,2,-2,0,-1,5
1584991655.0166857,2,-6,-4,-1,2,-1,2,-3
1584991655.0323484,0,-1,-3,1,2,-3,0,0
1584991655.0323484,-1,4,1,6,2,-3,-3,-3
1584991655.0390449,1,1,0,-3,-2,2,3,-1
1584991655.0390449,-6,2,1,-1,0,1,-3,-2
1584991655.0556142,9,-4,1,1,2,0,1,2
1584991655.0556142,6,0,-4,-2,-2,-1,-6,-1
1584991655.0568128,-4,-4,-1,0,-5,1,-1,2
1584991655.0568128,4,-2,3,0,0,3,-1,0
1584991655.069962,-9,6,-3,0,-5,-1,1,3
1584991655.069962,-34,-17,-9,-3,-3,1,-3,-13
1584991655.076644,-3,-5,-4,1,-1,-1,0,0
1584991655.076644,-4,-10,-11,1,-2,0,0,4
1584991655.0927148,2,44,24,3,2,-2,3,-3
1584991655.0927148,12,-24,-9,-3,-2,-2,1,2
1584991655.0991085,-5,51,17,3,5,3,1,0
1584991655.0991085,-8,-38,-16,6,15,8,1,0
1584991655.115622,7,48,-1,5,23,4,4,3
1584991655.115622,-1,-11,-3,-7,-33,-5,1,-3
1584991655.1173565,15,1,-7,-8,-19,-5,-2,6
1584991655.1173565,-22,-13,-1,0,12,2,-3,-1
1584991655.130271,5,4,5,8,7,-2,2,-2
1584991655.130271,2,-3,-3,-4,-10,1,0,-3
1584991655.1379044,-1,2,-1,-3,-1,-2,3,0
1584991655.1379044,4,2,-1,2,8,0,2,2
1584991655.152937,3,0,-2,-2,2,-2,0,1
1584991655.152937,-2,-1,0,-2,1,3,0,1
1584991655.1591268,0,3,5,4,5,1,2,-1
1584991655.1591268,9,2,1,-1,1,2,1,3
1584991655.1762586,9,-4,-4,-2,-1,-4,-1,3
1584991655.1762586,-24,-4,-2,0,-1,0,1,-4
1584991655.177667,12,1,-2,2,-1,-2,1,2
1584991655.177667,-16,2,-1,-10,1,-1,-3,-5
1584991655.189833,-64,2,-3,-25,0,1,2,-7
1584991655.189833,122,-11,-8,44,9,-4,-7,21
1584991655.1974633,-18,7,4,-18,8,2,8,-4
1584991655.1974633,32,-31,-19,-18,-14,1,-9,10
1584991655.2204351,-42,2,2,-5,-4,-5,-5,-21
1584991655.2204351,60,-4,-1,-5,1,-2,-1,17
1584991655.2220325,55,19,10,0,-1,3,8,7
1584991655.2220325,14,-12,-7,0,-3,-5,-6,-14
1584991655.235603,-11,0,1,-1,-3,2,0,9
1584991655.235603,-11,5,3,3,1,-1,-1,-7
1584991655.2369764,11,-1,0,1,-1,3,-1,2
1584991655.2369764,1,-3,-3,0,1,0,-1,-5
1584991655.2498274,-7,1,-4,1,-3,-2,-3,-2
1584991655.2498274,-2,7,4,0,-1,-2,0,-1
1584991655.264156,0,1,-1,-1,2,0,0,2
1584991655.264156,4,-8,-8,-2,-3,-3,-3,-1
1584991655.2722876,-4,-11,11,2,1,0,3,1
1584991655.2722876,6,32,6,3,2,2,-2,-3
1584991655.279112,18,-9,-7,6,27,10,4,5
1584991655.279112,-22,30,24,8,25,4,-2,1
1584991655.2957118,-14,-15,1,-19,-79,-12,5,-3
1584991655.2957118,1,-18,-16,-12,-1,8,-6,-3
1584991655.2974658,7,-3,-3,-1,-7,-11,-5,5
1584991655.2974658,3,3,0,-4,-9,-3,-8,-4
1584991655.309951,-24,-21,-5,6,13,6,0,0
1584991655.309951,2,-6,0,-5,-12,0,0,-4
1584991655.3166962,3,5,-2,3,4,5,10,7
1584991655.3166962,1,-1,-1,2,10,2,0,6
1584991655.3324468,13,-2,3,-2,7,0,-1,3
1584991655.3324468,-37,3,2,2,5,2,0,-7
1584991655.3391423,-23,4,4,1,4,3,1,-2
1584991655.3391423,20,-8,-3,-3,1,-8,-3,19
1584991655.3556268,114,5,7,7,-6,9,10,4
1584991655.3556268,14,-12,-7,-18,5,0,-11,-13
1584991655.3573854,-107,-6,4,31,6,-23,1,8
1584991655.3573854,-31,-14,-10,-8,2,20,-4,-17
1584991655.370402,23,-1,-4,-6,-9,4,-3,-1
1584991655.370402,-47,14,10,6,6,-4,13,15
1584991655.3766835,94,-1,-2,2,11,-5,2,-10
1584991655.3766835,19,-17,-9,-7,-4,-18,-13,1
1584991655.3923426,-34,6,5,5,3,-2,0,-6
1584991655.3923426,-36,8,7,3,7,0,2,-1
1584991655.3990424,-25,5,0,1,3,4,2,0
1584991655.3990424,-9,2,0,4,0,1,-2,0
1584991655.4159338,0,1,-3,0,-2,-2,0,-1
1584991655.4159338,2,2,3,5,0,-1,-1,-6
1584991655.417679,3,1,-1,0,-1,1,2,1
1584991655.417679,1,-1,-4,-3,-3,-1,-2,-3
1584991655.4298434,4,-3,-4,0,0,-3,2,1
1584991655.4298434,0,-6,-2,-3,1,0,3,-2
1584991655.4366677,0,5,0,-2,0,1,1,-2
1584991655.4366677,0,-1,1,1,0,-1,-2,-3
1584991655.4606955,3,-14,-2,-1,-2,0,2,5
1584991655.4606955,12,28,13,-1,0,-3,0,1
1584991655.463434,-25,-10,-10,-2,-2,3,0,-5
1584991655.463434,-1,-1,11,-2,2,1,-6,-4
1584991655.4754677,-7,1,5,-1,2,1,2,-2
1584991655.4754677,23,-16,-7,1,1,-3,0,5
1584991655.4770932,-35,-5,8,-1,0,-1,0,-6
1584991655.4770932,-10,8,1,-1,3,-1,1,0
1584991655.4891248,-13,23,-7,-1,1,-5,1,-3
1584991655.4891248,52,-1,10,0,-2,-3,-1,8
1584991655.5042086,5,-5,-4,3,1,2,5,4
1584991655.5042086,2,-1,-4,0,0,-3,-3,-8
1584991655.512241,-13,-6,-2,-1,-3,1,0,-5
1584991655.512241,-14,1,-4,-3,-1,3,3,-4
1584991655.519042,-19,3,4,3,2,-1,-2,3
1584991655.519042,38,1,-3,-1,1,0,0,3
1584991655.543095,18,-3,-6,-1,-1,1,-3,7
1584991655.543095,-35,1,0,0,0,-2,1,-4
1584991655.5451393,-3,2,-2,-2,4,3,3,3
1584991655.5451393,-19,3,1,-2,0,-1,-5,-3
1584991655.5492642,0,-7,-3,-2,-4,-3,-4,2
1584991655.5492642,15,1,0,-2,0,0,-1,3
1584991655.5579176,-18,2,1,0,-2,3,-2,1
1584991655.5579176,-3,-2,-3,-2,-1,-1,-3,-2
1584991655.572232,2,-2,2,-1,-1,-2,-2,2
1584991655.572232,-13,3,0,0,1,0,2,-2
1584991655.579079,10,0,2,-4,-1,0,2,3
1584991655.579079,14,1,-2,0,-3,0,1,2
1584991655.6111073,-2,-1,2,3,0,-3,-1,2
1584991655.6111073,-33,0,-1,-1,0,-1,-2,-6
1584991655.6130216,10,-1,-2,0,-1,2,2,4
1584991655.6130216,38,2,3,1,-2,-5,1,-1
1584991655.613375,-33,-2,-4,-1,1,2,-4,-7
1584991655.613375,3,-3,-5,-1,-1,-2,-1,2
1584991655.6189468,-6,10,4,-2,0,1,-1,-2
1584991655.6189468,4,0,-2,0,0,3,2,0
1584991655.632305,-29,-19,-9,-1,-1,1,0,3
1584991655.632305,31,17,9,2,2,-3,-3,-4
1584991655.6467056,-12,-7,-8,-3,-3,-3,-5,-6
1584991655.6467056,0,0,0,-2,-1,0,0,5
1584991655.655631,-17,-7,-8,-2,1,0,-2,-6
1584991655.655631,17,-8,-5,-2,1,1,0,4
1584991655.6573699,-7,1,-2,-1,0,3,5,-1
1584991655.6573699,-4,1,1,0,0,0,0,1
1584991655.6691806,-1,-2,-1,2,0,-2,-3,-1
1584991655.6691806,-6,3,2,-3,2,1,3,1
1584991655.6779497,2,4,0,-1,-1,-2,1,1
1584991655.6779497,-6,-1,-3,-1,-4,-1,0,2
1584991655.692783,15,-3,0,-2,-3,0,0,-7
1584991655.692783,-23,-8,-3,-1,-3,-2,3,4
1584991655.6991124,7,-3,-1,0,-2,2,-1,5
1584991655.6991124,15,5,1,-2,0,-2,-1,3
1584991655.7155874,0,2,0,-1,3,-3,1,-1
1584991655.7155874,-3,3,3,-1,2,0,2,0
1584991655.7173743,-2,1,-4,-3,5,2,0,-1
1584991655.7173743,1,-2,0,-3,-2,0,0,3
1584991655.72913,-9,1,2,1,-1,-1,-3,-1
1584991655.72913,48,4,6,1,2,2,3,-2
1584991655.7380164,-38,-12,-4,0,0,-2,-3,-7
1584991655.7380164,14,0,1,1,0,-1,-4,2
1584991655.7523549,-7,2,0,-1,0,0,1,0
1584991655.7523549,-9,0,0,-2,-2,0,3,1
1584991655.7590837,-11,0,-1,-1,0,-1,2,-3
1584991655.7590837,-3,0,2,3,-1,-1,0,-2
1584991655.7759373,-1,-3,-3,-2,0,-2,0,0
1584991655.7759373,-3,-2,-1,0,1,2,2,-1
1584991655.7776008,-19,10,5,-1,-1,1,0,0
1584991655.7776008,13,0,0,-1,1,-1,-2,0
1584991655.7891324,1,-4,-3,-4,-4,-1,-3,-2
1584991655.7891324,4,-4,0,-1,-1,-2,-2,1
1584991655.7979472,-4,2,-1,-1,2,1,2,-4
1584991655.7979472,0,2,0,-4,0,-1,1,-2
1584991655.812927,0,0,-2,-1,-3,-5,0,1
1584991655.812927,12,3,2,-3,0,-2,3,4
1584991655.8191133,9,0,-1,1,2,0,0,1
1584991655.8191133,-18,2,1,2,1,-1,1,-1
1584991655.8340604,-21,-6,-3,-1,-1,4,-1,-5
1584991655.8340604,5,-3,-4,-5,-4,1,-1,-10
1584991655.8416023,61,1,-3,-3,-2,-2,-2,12
1584991655.8416023,-18,-3,2,-4,0,0,-3,-3
1584991655.8572211,-10,-1,-2,-1,-1,0,3,0
1584991655.8572211,-8,9,-1,-1,1,0,0,-1
1584991655.8581028,-5,2,3,1,1,-1,1,0
1584991655.8581028,-4,-7,-3,-1,-3,-1,0,-4
1584991655.8811293,6,-2,-3,-3,1,-2,0,-2
1584991655.8811293,-13,1,6,3,1,0,0,0
1584991655.8822477,5,5,2,3,1,-3,-2,-9
1584991655.8822477,26,0,-5,-1,-1,4,-1,7
1584991655.8940616,-9,-1,0,0,0,-3,-3,-13
1584991655.8940616,-4,-4,1,0,-2,-1,-2,3
1584991655.9015841,-4,-2,2,2,3,1,2,-1
1584991655.9015841,-3,1,0,-1,1,-1,4,-2
1584991655.9247286,2,-5,-1,-2,-1,-1,2,2
1584991655.9247286,0,-1,-2,3,-2,-1,0,0
1584991655.9259782,-13,-4,-2,2,1,3,0,-3
1584991655.9259782,-14,0,1,3,1,0,0,-2
1584991655.9329271,6,-2,0,-2,-1,0,-4,-3
1584991655.9329271,-2,1,0,3,-1,-2,0,4
1584991655.9390726,10,2,-1,-1,2,0,0,-1
1584991655.9390726,-2,1,0,-3,0,0,0,1
1584991655.954062,4,-1,0,1,-1,0,-3,-4
1584991655.954062,5,1,2,-1,-1,1,-1,2
1584991655.970291,-3,3,0,3,0,0,-1,1
1584991655.970291,-19,-6,-2,-1,-1,-3,2,-5
1584991655.9792624,-13,9,4,0,-1,-2,2,-5
1584991655.9792624,31,0,0,0,-1,1,-2,-3
1584991655.980559,8,2,1,0,0,2,2,5
1584991655.980559,-26,4,0,2,-3,2,1,-5
1584991655.9929645,31,0,0,-2,-3,-5,-1,-2
1584991655.9929645,-3,-12,-5,-1,-5,1,-1,0
1584991655.9990826,-3,6,-2,-1,-1,-1,1,-6
1584991655.9990826,-9,2,2,5,-1,0,-3,-4
1584991656.0155988,13,4,3,-2,-1,-1,-1,3
1584991656.0155988,-26,-5,0,-3,-2,-3,-1,0
1584991656.021681,-14,4,0,1,0,-2,-2,-7
1584991656.021681,18,0,0,3,-2,-1,1,4
1584991656.0372598,8,-1,-2,0,-2,-3,0,-1
1584991656.0372598,-3,-1,0,1,-3,-4,1,0
1584991656.038598,0,-2,-1,-2,-3,3,0,2
1584991656.038598,-8,3,4,2,-1,1,1,1
1584991656.0529752,4,0,-2,-4,2,0,-3,-3
1584991656.0529752,-3,1,0,-3,2,0,-2,0
1584991656.059054,0,-2,5,-1,1,0,-3,3
1584991656.059054,-9,2,2,2,0,-1,-3,-5
1584991656.0740678,17,-2,-1,-2,0,-1,0,-1
1584991656.0740678,19,-1,0,2,-1,-2,-1,6
1584991656.0816832,-24,-4,-3,1,2,1,2,-4
1584991656.0816832,4,-1,-4,-3,0,-3,-1,-1
1584991656.0983853,-27,-5,0,-4,3,-2,1,4
1584991656.0983853,13,-1,-2,0,-2,-4,1,4
1584991656.1040897,2,6,6,1,2,-1,-6,-5
1584991656.1040897,1,-2,-3,1,-4,0,1,1
1584991656.1129708,-20,-2,-1,-2,2,4,1,-3
1584991656.1129708,-17,4,-2,-3,0,0,1,-7
1584991656.1190588,1,-3,-4,-2,0,1,2,2
1584991656.1190588,-3,1,-3,0,-1,1,-3,-7
1584991656.134123,-18,-7,-4,-1,0,-3,-1,2
1584991656.134123,9,-1,-1,-1,-2,1,-1,3
1584991656.1416888,-3,0,0,-2,0,4,0,0
1584991656.1416888,4,-1,0,1,-4,-2,-5,-5
1584991656.1571982,2,2,-3,-1,-3,-3,-3,0
1584991656.1571982,4,0,2,-3,3,-2,-3,-2
1584991656.158467,-11,-2,-3,-1,0,0,2,-2
1584991656.158467,-22,4,4,-1,0,-1,1,-2
1584991656.1730084,25,0,-3,2,1,-2,-5,-1
1584991656.1730084,18,-3,0,-1,1,-2,-1,-2
1584991656.1790547,9,5,5,2,1,3,2,0
1584991656.1790547,-4,-3,-2,1,-3,-4,0,3
1584991656.2023199,11,1,1,1,-1,-1,1,-1
1584991656.2023199,-7,0,-1,-1,0,1,1,2
1584991656.2036722,4,0,1,0,2,1,1,1
1584991656.2036722,-15,0,-2,0,-1,-1,-2,-3
1584991656.217258,15,0,-3,-2,-1,1,-1,2
1584991656.217258,22,4,0,1,-2,1,1,3
1584991656.218608,11,0,0,-2,1,0,2,0
1584991656.218608,-9,-5,-3,3,0,-1,-5,-5
1584991656.2329388,-1,-2,2,0,4,0,0,4
1584991656.2329388,1,1,2,0,1,-2,-5,1
1584991656.2391043,0,0,3,0,5,-1,1,2
1584991656.2391043,6,2,-2,-4,0,-2,-4,1
1584991656.2540402,-11,2,1,2,-1,0,-1,0
1584991656.2540402,-3,-1,-2,0,-1,-7,-1,-8
1584991656.2616882,-1,2,-1,0,1,-1,2,5
1584991656.2616882,-35,-6,0,-3,-2,0,-1,-6
1584991656.2772179,-13,-1,-1,3,-2,1,0,0
1584991656.2772179,53,-12,-6,-2,-2,-2,-1,16
1584991656.2785006,-2,0,-1,2,-1,1,0,-1
1584991656.2785006,26,8,1,1,3,-1,-1,8
1584991656.2929626,-1,1,-3,2,1,0,0,-2
1584991656.2929626,-10,-4,-1,-1,0,1,-4,-5
1584991656.2990816,7,10,3,3,4,3,3,-1
1584991656.2990816,23,-3,-6,-5,-2,1,0,3
1584991656.3140688,-2,-1,1,0,1,-10,-3,4
1584991656.3140688,-8,-5,-3,-3,-2,1,-4,-3
1584991656.3216765,3,4,3,-1,2,0,1,-2
1584991656.3216765,8,-7,-1,0,1,-4,-2,1
1584991656.3372724,-8,-4,-1,1,-2,-4,0,1
1584991656.3372724,0,3,2,1,0,0,1,-3
1584991656.3387089,-21,-3,-4,0,-1,0,-1,4
1584991656.3387089,-6,-5,-3,-1,0,0,4,1
1584991656.3529408,28,-9,-3,0,-2,-3,-5,-6
1584991656.3529408,2,3,4,0,1,-1,2,-2
1584991656.359097,10,-3,4,3,3,1,0,4
1584991656.359097,-19,5,1,2,-1,-5,-1,0
1584991656.375508,13,-5,-4,1,-2,-2,-1,0
1584991656.375508,-2,-2,2,1,-3,2,0,-1
1584991656.3815696,7,2,-1,1,3,2,2,3
1584991656.3815696,-17,1,0,-1,-5,2,0,-3
1584991656.3972504,25,-10,-4,-2,0,-5,-6,-10
1584991656.3972504,-8,2,-2,0,1,0,0,-2
1584991656.3982618,-1,3,1,2,2,1,0,0
1584991656.3982618,-5,2,-1,1,1,0,2,1
1584991656.4129708,15,-5,-1,-2,-3,-1,-2,-3
1584991656.4129708,-10,-7,-4,-1,-3,-3,0,1
1584991656.4190886,-8,6,5,6,1,4,1,0
1584991656.4190886,0,-3,1,-1,-1,2,-2,-5
1584991656.4340532,1,2,0,-1,0,-2,2,-1
1584991656.4340532,-2,-2,-2,-2,0,-2,3,7
1584991656.4415905,22,3,-1,-3,-1,1,-2,-2
1584991656.4415905,-22,-2,0,0,0,1,3,-6
1584991656.4571738,37,-4,-5,-1,-2,-2,-3,3
1584991656.4571738,-28,-10,-1,0,-4,-4,-1,5
1584991656.458391,9,7,0,1,-3,-1,-1,7
1584991656.458391,-43,5,1,-2,2,-1,0,3
1584991656.4811602,9,2,-1,-2,-2,-3,-3,-10
1584991656.4811602,-19,-2,-4,-3,-1,-3,-6,-8
1584991656.4822464,49,-11,-7,-2,0,-1,2,0
1584991656.4822464,-5,8,6,1,-1,0,-2,9
1584991656.4940403,-43,-10,2,-1,2,-1,-1,-9
1584991656.4940403,-6,1,-2,-3,1,1,1,3
1584991656.5015714,-5,0,-2,0,2,-1,1,1
1584991656.5015714,-3,0,-1,1,0,0,-2,2
1584991656.524692,-1,-3,-5,-2,-1,-4,0,0
1584991656.524692,2,7,7,3,-1,0,-2,0
1584991656.525583,3,-3,0,-3,3,0,1,-2
1584991656.525583,-1,-1,-6,-2,-3,2,-3,-1
1584991656.5328577,-1,-17,-20,-7,-6,-3,-1,0
1584991656.5328577,9,-3,5,3,7,2,0,-1
1584991656.5389888,-9,-2,0,8,42,11,1,-1
1584991656.5389888,-15,-10,0,-2,-14,-4,1,3
1584991656.554023,-3,-24,-8,-11,-47,-17,-6,-2
1584991656.554023,12,28,-13,17,80,34,3,-3
1584991656.5615363,7,-2,11,13,2,-10,0,-5
1584991656.5615363,-7,-2,4,-29,-128,-33,-7,-3
1584991656.5776675,20,-8,-8,-23,-59,-8,-2,4
1584991656.5776675,1,-1,-7,2,17,3,0,0
1584991656.584138,-12,-1,-3,9,24,8,1,-3
1584991656.584138,5,0,0,6,26,6,0,-2
1584991656.592936,-2,-2,2,6,18,4,4,1
1584991656.592936,21,3,1,3,10,2,0,-2
1584991656.5991633,14,1,-3,-20,3,0,1,6
1584991656.5991633,-15,-6,-4,14,0,3,-3,5
1584991656.6140516,-44,2,3,7,-6,1,-2,-15
1584991656.6140516,-67,0,2,22,-8,-17,-5,-9
1584991656.621569,96,2,-5,-17,-25,-13,0,13
1584991656.621569,-66,7,2,-34,-27,26,-1,-27
1584991656.6372564,99,-11,-8,-3,29,-2,-3,4
1584991656.6372564,-105,19,5,8,-8,6,-8,1
1584991656.6385815,127,-8,-1,3,7,11,9,32
1584991656.6385815,-52,6,4,2,4,4,1,-1
1584991656.652957,-108,-7,2,3,3,-13,-6,5
1584991656.652957,99,-6,-1,0,2,1,-3,2
1584991656.6590889,38,-5,-3,-5,-3,-8,-2,0
1584991656.6590889,0,-5,-1,2,-1,2,3,0
1584991656.674045,-27,1,5,-1,0,1,3,-4
1584991656.674045,-38,4,3,-5,0,4,2,-3
1584991656.6815531,-2,10,1,0,-1,1,1,-2
1584991656.6815531,-7,-3,-3,-1,0,-1,-1,0
1584991656.6972015,-5,-3,-2,-4,-1,-1,-1,0
1584991656.6972015,1,-3,-8,-3,-4,-1,1,0
1584991656.6980834,6,-4,-6,-2,-4,1,2,4
1584991656.6980834,1,10,13,2,-2,-2,-3,-2
1584991656.7129414,15,-4,-22,-5,-6,-1,-1,8
1584991656.7129414,-29,-51,23,5,0,-2,2,-7
1584991656.7190466,26,58,-18,-2,7,0,-1,3
1584991656.7190466,-41,-1,26,7,21,4,-5,-10
1584991656.7355099,25,-21,-2,4,31,8,1,6
1584991656.7355099,-9,1,23,-2,-53,-10,7,3
1584991656.7415698,30,50,-4,-8,-14,0,11,5
1584991656.7415698,-20,-29,-7,-3,-10,-8,-18,-5
1584991656.7566702,5,-5,-8,-8,-14,-3,-1,5
1584991656.7566702,2,-2,-5,12,30,9,9,-8
1584991656.7640386,3,-5,1,-5,-20,-8,-11,-4
1584991656.7640386,3,-1,-3,-6,-9,0,9,1
1584991656.7729776,-3,2,1,3,13,3,2,-1
1584991656.7729776,0,2,0,3,10,3,2,0
1584991656.7790303,9,3,-2,0,8,4,3,0
1584991656.7790303,-28,-3,-2,1,3,2,2,4
1584991656.8036568,7,0,0,0,1,4,2,-8
1584991656.8036568,15,-3,-1,-1,-1,-2,-1,3
1584991656.8050148,-1,-4,-3,-4,-4,-3,-2,2
1584991656.8050148,-107,14,9,6,4,0,3,-9
1584991656.81662,127,-4,-6,-12,-1,9,2,37
1584991656.81662,18,-7,-6,1,-9,-10,-1,-24
1584991656.8240669,-89,7,2,0,1,-1,-2,-5
1584991656.8240669,127,-4,-4,-4,-3,18,-2,35
1584991656.8329241,-8,-24,-13,-8,-6,-19,-8,-5
1584991656.8329241,-70,9,5,2,-3,2,-3,3
1584991656.839095,40,2,2,2,7,0,5,6
1584991656.839095,-13,-3,0,-2,-1,-1,-1,-16
1584991656.8555644,-21,-3,-3,1,-1,1,-3,-8
1584991656.8555644,-29,1,4,1,-1,0,1,1
1584991656.861526,-10,1,3,-1,0,3,-1,-3
1584991656.861526,-6,3,0,1,0,-1,3,1
1584991656.8765678,2,1,-1,-4,2,-1,-3,-3
1584991656.8765678,1,-5,-4,-2,2,-2,2,0
1584991656.8841481,4,2,1,0,-1,-2,-3,-3
1584991656.8841481,1,1,0,-3,-1,-1,1,0
1584991656.892968,0,2,0,0,-2,-3,-1,1
1584991656.892968,6,2,5,-1,-2,1,-2,6
1584991656.8991606,-22,-1,0,-1,-4,0,-3,-6
1584991656.8991606,8,-1,-1,0,-1,-3,2,0
1584991656.9155304,7,-12,-10,-1,-2,-1,-2,1
1584991656.9155304,2,29,14,3,2,0,1,0
1584991656.9301872,-1,-24,-8,-6,-2,-3,-2,4
1584991656.9301872,11,35,19,3,0,1,-1,-2
1584991656.9446623,7,-7,-1,3,0,-3,0,1
1584991656.9446623,3,1,-6,-1,0,-6,-2,-1
1584991656.9455342,-6,-4,2,4,2,-3,-1,1
1584991656.9455342,-6,8,-3,1,-1,-2,-4,-1
1584991656.959691,27,0,3,2,2,-3,0,-6
1584991656.959691,5,-5,-1,-2,3,2,5,5
1584991656.9608788,1,-2,1,1,1,1,-3,4
1584991656.9608788,-3,2,0,0,2,-2,-1,-5
1584991656.9755154,25,0,0,1,-3,-2,0,3
1584991656.9755154,-25,4,1,-2,0,-1,-1,-8
1584991656.9815025,31,4,0,2,1,-2,3,6
1584991656.9815025,3,-3,-3,0,-2,-2,-1,5
1584991656.9965534,-7,2,2,2,1,0,-1,1
1584991656.9965534,-5,-2,2,2,1,5,-1,1
1584991657.0040681,0,-4,2,1,-1,0,0,-1
1584991657.0040681,-40,-3,0,-2,-2,2,-1,-2
1584991657.0197005,7,0,3,-1,1,-5,1,-3
1584991657.0197005,12,-2,-1,-4,-5,-5,4,-4
1584991657.0205595,-7,3,1,2,-1,-1,-3,0
1584991657.0205595,-4,1,0,-1,-1,-2,-1,-3
1584991657.0359287,-4,1,-1,2,-1,1,2,0
1584991657.0359287,-2,-1,2,0,-1,3,-1,-2
1584991657.0498445,-2,4,3,0,-5,2,-1,1
1584991657.0498445,-6,-4,-1,0,1,-3,-2,-5
1584991657.0565405,-1,-4,-2,-1,-1,-4,-2,2
1584991657.0565405,6,3,5,1,-2,-3,1,-2
1584991657.064077,-11,-6,-4,0,-6,-1,-2,1
1584991657.064077,-8,1,-1,3,-2,-2,-1,-1
1584991657.0810804,-6,0,2,0,-2,-2,-4,-5
1584991657.0810804,8,-4,-2,-2,-3,1,0,5
1584991657.0820088,-1,1,-2,-4,-1,-1,1,2
1584991657.0820088,-6,3,0,-3,0,-3,-3,-6
1584991657.0940478,-4,-2,-3,-2,-2,-1,3,0
1584991657.0940478,2,1,0,1,0,0,-3,-2
1584991657.1015246,-4,-7,-6,-4,-5,2,3,1
1584991657.1015246,-13,2,-3,-3,3,-1,1,1
1584991657.1246712,-7,8,17,3,0,-1,1,-12
1584991657.1246712,39,7,-1,3,3,1,1,4
1584991657.1254406,8,-4,-7,-2,-2,-2,-3,3
1584991657.1254406,-10,0,6,0,1,1,1,-3
1584991657.139887,-3,1,-1,2,1,1,0,-4
1584991657.139887,-20,-4,1,1,1,0,-1,-2
1584991657.140977,-6,3,-4,-4,-1,0,0,-7
1584991657.140977,4,0,-2,1,-1,-1,0,-4
1584991657.1540964,-1,1,-1,0,-2,0,1,1
1584991657.1540964,-1,-1,1,-2,2,1,-3,-2
1584991657.1708167,5,-3,0,1,-2,-1,-3,3
1584991657.1708167,-14,0,2,-2,-1,-1,-1,-4
1584991657.184725,2,-1,0,0,-3,-1,1,-1
1584991657.184725,23,-8,-9,-2,-2,-3,-2,2
1584991657.1857846,33,-1,-2,-1,1,0,0,2
1584991657.1857846,-23,-1,1,1,1,2,-4,0
1584991657.2079086,-6,0,-3,1,1,0,2,-2
1584991657.2079086,2,9,4,2,1,0,1,2
1584991657.2097614,0,-4,0,0,0,0,0,0
1584991657.2097614,1,2,-1,-2,-4,0,0,-2
1584991657.214313,-3,-2,-2,-3,-2,-1,-2,4
1584991657.214313,0,-2,0,-2,-2,-1,-1,3
1584991657.2214942,-1,-1,1,0,1,-4,-3,-3
1584991657.2214942,-10,0,1,-3,-3,-1,0,1
1584991657.2365973,0,-2,-2,-2,1,-1,-3,-3
1584991657.2365973,9,2,-1,2,0,2,0,-3
1584991657.2440665,18,-4,-4,-4,-1,-1,-3,-1
1584991657.2440665,-29,0,-5,-1,-1,-2,-1,3
1584991657.2596843,1,-1,-4,-1,0,-1,-1,0
1584991657.2596843,-7,3,8,2,1,0,1,-2
1584991657.2609866,-1,0,1,-3,1,-2,3,3
1584991657.2609866,-2,1,-1,0,0,2,0,0
1584991657.273983,-1,0,-4,-2,0,0,-1,-1
1584991657.273983,2,-1,-2,-1,-1,2,-3,7
1584991657.281571,-42,-1,2,-3,-1,2,-1,-9
1584991657.281571,10,8,0,1,-1,1,1,2
1584991657.2965412,23,-7,-6,-1,-1,-3,-2,6
1584991657.2965412,6,0,3,0,-3,-1,-1,2
1584991657.3040566,-4,-3,1,2,-1,2,2,1
1584991657.3040566,-8,-4,-4,0,0,0,0,0
1584991657.3196762,-6,2,2,-2,-4,-1,2,0
1584991657.3196762,-3,1,0,1,-1,-1,0,0
1584991657.3208356,0,0,0,0,-1,1,3,0
1584991657.3208356,-2,5,2,1,3,-1,0,-2
1584991657.3355305,-12,1,-2,-1,-4,0,1,-3
1584991657.3355305,0,11,2,-1,0,0,-2,-1
1584991657.34152,19,-1,-1,-4,-2,-3,-3,4
1584991657.34152,-10,-10,-4,-1,0,0,-2,0
1584991657.3565586,4,0,3,-3,0,0,-1,1
1584991657.3565586,-3,1,2,0,-1,0,-2,3
1584991657.3640473,-5,-2,0,0,-1,-4,-1,0
1584991657.3640473,-3,-3,-2,-2,-2,-5,0,-1
1584991657.379695,-3,-1,1,0,1,-3,0,-4
1584991657.379695,-5,-4,-5,0,-2,2,-2,-1
1584991657.3808994,6,0,6,0,0,1,2,-1
1584991657.3808994,9,4,2,-2,-4,-1,1,-3
1584991657.4035707,4,4,-1,0,-1,0,-1,3
1584991657.4035707,11,-4,-4,-3,-1,0,1,5
1584991657.4050155,-30,-2,2,1,1,-2,-3,-1
1584991657.4050155,-4,0,1,1,0,-4,-1,-2
1584991657.4165835,-2,-2,1,0,-3,1,0,-1
1584991657.4165835,-1,0,0,-1,-1,3,1,2
1584991657.4240649,4,-3,-3,-1,-3,-2,-3,-3
1584991657.4240649,2,1,-3,1,0,-1,-2,1
1584991657.4396837,-8,-6,-2,-3,0,0,-1,3
1584991657.4396837,4,8,2,3,-3,0,2,-3
1584991657.4408865,6,0,1,-2,0,2,2,8
1584991657.4408865,9,0,5,2,-1,-1,-1,-7
1584991657.4554958,3,-4,-2,-1,-1,0,0,4
1584991657.4554958,-2,-4,0,-4,3,2,-1,4
1584991657.4616518,-8,3,0,0,3,-1,-3,-4
1584991657.4616518,-3,-4,-5,-2,-1,-2,1,-6
1584991657.484769,1,0,0,1,2,-1,0,-1
1584991657.484769,-2,-1,-2,-1,0,-1,2,-3
1584991657.4860914,5,1,-1,-1,-6,-3,0,-3
1584991657.4860914,-29,-11,-4,0,-1,-2,-4,1
1584991657.4997272,8,8,1,0,-1,-1,0,0
1584991657.4997272,9,-1,-2,-1,-3,-1,-4,-1
1584991657.5005727,11,-3,-7,-1,0,2,-2,2
1584991657.5005727,-19,-2,-1,-1,0,0,0,3
1584991657.515489,11,10,4,1,0,-4,1,2
1584991657.515489,-4,-1,0,1,0,2,-4,-3
1584991657.5215478,-4,2,-4,-2,2,2,0,-5
1584991657.5215478,2,-3,0,-4,0,-2,-1,-1
1584991657.5365038,-1,-4,-2,-1,0,-1,0,0
1584991657.5365038,-1,-6,-1,0,-1,3,-1,-5
1584991657.5439603,3,3,0,-1,-1,-2,0,0
1584991657.5439603,-18,1,1,1,-1,-1,-5,-1
1584991657.5596585,17,5,2,-4,-1,2,3,3
1584991657.5596585,-24,-5,-1,-1,0,2,-2,4
1584991657.5604966,5,1,-1,-1,-2,-1,1,-3
1584991657.5604966,11,-3,-5,0,-1,-1,-2,1
1584991657.5754864,-1,0,-4,2,0,-4,-1,-3
1584991657.5754864,8,-2,0,0,0,3,1,6
1584991657.581512,0,3,2,-3,-3,1,-4,-1
1584991657.581512,6,5,5,1,1,1,0,4
1584991657.5965261,1,6,0,-2,0,-3,-2,5
1584991657.5965261,-22,-8,-5,0,-2,0,-6,-4
1584991657.6040263,-5,-4,0,-2,0,0,-1,-6
1584991657.6040263,-5,1,-1,2,2,-4,0,0
1584991657.6197212,35,0,-3,-2,2,-4,1,-2
1584991657.6197212,-11,-3,2,-2,-1,0,1,5
1584991657.6209183,-3,0,0,-2,-1,1,1,-1
1584991657.6209183,-5,1,0,-2,-2,2,-1,-1
1584991657.6354775,-21,3,0,-1,1,-1,-1,-1
1584991657.6354775,11,1,-1,-1,0,2,0,-3
1584991657.6498063,3,2,0,-3,-4,-5,2,5
1584991657.6498063,-1,0,3,1,0,-2,3,-2
1584991657.656513,-9,2,1,-3,-4,-2,1,4
1584991657.656513,10,-4,-3,-2,0,-1,-2,-3
1584991657.6640131,-27,3,-7,-3,-1,0,-2,-1
1584991657.6640131,14,2,-1,2,0,-4,-1,5
1584991657.679045,2,-5,-7,1,0,0,-1,3
1584991657.679045,-17,2,3,1,-1,-1,-2,-4
1584991657.6865473,15,-4,0,-2,1,-1,0,3
1584991657.6865473,8,-7,-5,0,0,0,0,-1
1584991657.702295,1,5,-1,-2,2,1,2,0
1584991657.702295,6,-2,1,-3,-2,0,1,0
1584991657.7036564,-9,2,1,0,0,-4,-1,-6
1584991657.7036564,-1,-1,0,1,1,-3,1,2
1584991657.7165747,0,-1,1,-3,-1,0,1,-3
1584991657.7165747,7,12,8,-2,-1,2,0,-1
1584991657.7240255,-3,0,0,-2,-3,-3,-1,-1
1584991657.7240255,2,-2,-2,0,-2,-3,-3,-3
1584991657.73904,-11,-5,-3,-2,-5,4,1,-4
1584991657.73904,-4,11,3,-1,-2,2,-1,-3
1584991657.7465434,25,3,0,-1,-3,-3,-3,-5
1584991657.7465434,-10,-9,-5,-5,-2,-3,-1,12
1584991657.7635908,-6,2,-1,-1,-2,1,0,-4
1584991657.7635908,-11,-4,-1,0,1,1,1,-4
1584991657.7644403,-1,4,0,5,6,-3,0,1
1584991657.7644403,-5,-1,1,0,-2,-4,-3,-5
1584991657.7765255,-3,3,-1,-2,-3,-2,0,10
1584991657.7765255,45,-3,0,0,1,-1,4,-2
1584991657.7840965,-9,1,6,4,-2,-1,-3,-3
1584991657.7840965,1,-1,0,-3,1,-1,4,1
1584991657.7989933,-19,2,-3,0,-1,0,1,-1
1584991657.7989933,-5,-6,-3,-1,-3,1,2,-3
1584991657.806527,-25,5,2,-2,1,0,0,-4
1584991657.806527,16,-3,1,1,-1,-3,-3,7
1584991657.8154752,18,-2,-3,0,1,-1,0,0
1584991657.8154752,-7,0,-2,0,-1,1,-2,-5
1584991657.8215363,2,0,-2,-1,-4,0,-4,-1
1584991657.8215363,-12,-2,-1,2,1,3,1,4
1584991657.8365972,-4,3,-6,1,0,2,2,-6
1584991657.8365972,30,-3,0,-3,1,0,0,10
1584991657.8440099,11,4,-2,1,1,-3,2,0
1584991657.8440099,-11,0,-1,2,-1,-2,4,0
1584991657.859017,13,-2,2,-2,1,-3,0,-11
1584991657.859017,2,4,0,-2,0,4,1,-3
1584991657.8665705,-50,4,1,-1,-1,-1,4,1
1584991657.8665705,58,-4,-3,-5,0,-4,-3,12
1584991657.8822758,-26,5,4,0,3,-2,-3,-15
1584991657.8822758,10,-6,-3,-4,-2,-1,-4,-8
1584991657.8836584,-16,0,-4,-2,-4,-3,-3,1
1584991657.8836584,-2,3,3,2,-2,4,3,7
1584991657.896515,-13,5,-1,-1,1,1,2,-15
1584991657.896515,5,-4,-4,-3,-3,1,-7,3
1584991657.9040308,7,1,-2,0,-3,-3,0,3
1584991657.9040308,-13,3,1,-1,-1,3,3,0
1584991657.9190907,8,2,-1,1,1,1,-3,-5
1584991657.9190907,2,-5,-1,-1,-1,1,-2,-2
1584991657.9265401,-1,1,1,-1,-3,-3,3,1
1584991657.9265401,-16,5,4,0,-1,0,1,3
1584991657.9424455,27,0,2,-3,1,1,2,0
1584991657.9424455,-3,-5,-6,-1,-2,-2,-5,-1
1584991657.9432838,14,-1,2,1,-4,-4,1,5
1584991657.9432838,-18,-1,-1,-1,2,-1,-4,-10
1584991657.9565685,19,1,0,1,-3,-5,0,11
1584991657.9565685,18,-7,-5,-1,0,-2,-2,1
1584991657.964092,-12,4,-2,-4,-2,2,2,5
1584991657.964092,-32,6,-1,-4,-2,0,-1,-6
1584991657.979011,-6,7,1,0,1,2,-1,-10
1584991657.979011,4,-11,-9,-5,-2,-1,-2,-2
1584991657.9865243,22,-7,-7,-3,-2,-4,-1,11
1584991657.9865243,-13,5,2,-1,-1,-3,3,0
1584991658.003627,-4,2,-1,0,1,3,0,-1
1584991658.003627,-13,0,5,0,-2,4,3,-1
1584991658.0050523,-3,1,-2,0,0,0,2,0
1584991658.0050523,3,-2,0,-2,-4,-3,-1,0
1584991658.0165918,-3,-4,-1,-1,0,1,3,1
1584991658.0165918,0,10,0,1,-1,0,-2,-4
1584991658.0240247,1,-18,-1,1,-3,-1,6,4
1584991658.0240247,-6,7,0,-2,-2,-1,-13,6
1584991658.040411,2,-3,2,0,0,-2,5,-3
1584991658.040411,36,-7,-6,10,20,8,6,9
1584991658.046512,-10,92,56,11,11,-6,-6,-14
1584991658.046512,-8,-14,-9,-16,-39,-13,-21,-6
1584991658.0623286,-3,-12,-15,-16,-22,-10,5,-4
1584991658.0623286,7,-9,1,1,4,0,-1,0
1584991658.0632625,12,7,-2,6,5,-1,0,4
1584991658.0632625,8,19,15,6,5,3,2,1
1584991658.0765314,4,-3,4,1,4,-6,-3,8
1584991658.0765314,9,-4,-4,-1,0,2,-3,-3
1584991658.0840654,2,1,-4,1,1,0,-1,1
1584991658.0840654,0,0,-4,-1,0,0,0,3
1584991658.099025,-57,0,-2,0,2,0,1,-4
1584991658.099025,0,4,2,2,2,1,1,1
1584991658.1065154,3,-1,-2,-4,-5,-3,1,8
1584991658.1065154,36,2,-4,-1,4,-1,1,-2
1584991658.122241,-94,0,5,-14,6,2,-3,-12
1584991658.122241,-2,-5,-6,7,-22,-5,-5,-10
1584991658.1236377,99,-25,-11,2,-5,-4,-7,21
1584991658.1236377,6,5,6,12,22,6,6,20
1584991658.1364238,-63,6,0,-6,-26,-4,3,-34
1584991658.1364238,89,-12,-9,-20,-10,2,-8,11
1584991658.143949,33,-24,-11,-17,-13,-10,-4,4
1584991658.143949,7,3,5,7,0,7,1,-6
1584991658.1590323,-32,-3,8,7,8,1,0,2
1584991658.1590323,-67,1,0,2,4,-1,-1,-2
1584991658.1665566,3,0,0,4,-1,-3,2,-6
1584991658.1665566,5,1,-4,-1,0,-4,-4,-3
1584991658.1821895,-7,1,0,1,0,-4,-1,-1
1584991658.1821895,-6,-5,-3,-1,3,3,0,1
1584991658.1834183,6,6,0,-3,-1,0,0,-1
1584991658.1834183,1,1,0,-2,-2,2,0,-1
1584991658.1965115,-3,-5,-4,1,0,-3,0,-1
1584991658.1965115,-3,-7,-8,-1,-4,-4,-4,-5
1584991658.2040057,2,4,3,2,-1,0,1,1
1584991658.2040057,9,-1,-10,-3,1,-2,-3,2
1584991658.2190168,-10,10,20,4,2,0,-1,-3
1584991658.2190168,13,-37,-31,1,17,2,2,3
1584991658.226529,-11,47,30,5,11,3,10,-1
1584991658.226529,-8,-5,-8,-13,-24,-4,-1,-5
1584991658.2517958,8,-33,-9,-6,-24,-7,-12,-4
1584991658.2517958,1,27,-8,-2,10,-7,-15,1
1584991658.2534587,2,-5,3,3,-13,-7,10,4
1584991658.2534587,-1,-12,-1,0,-1,1,1,-1
1584991658.2564902,3,25,1,1,8,-2,2,3
1584991658.2564902,3,-3,-1,5,9,3,-1,2
1584991658.264018,-1,-2,0,0,2,-1,1,2
1584991658.264018,-29,-3,-2,-3,5,1,0,-8
1584991658.2790296,-24,-1,-1,3,3,1,-1,0
1584991658.2790296,4,5,2,-2,1,-3,-2,-5
1584991658.2865005,28,-15,-8,-7,-8,-4,-1,8
1584991658.2865005,-48,-1,4,2,-1,2,-1,-5
1584991658.3022978,28,7,5,6,-7,5,8,13
1584991658.3022978,-16,-2,1,-7,8,-21,-2,-11
1584991658.3036675,-128,-3,2,-2,-25,-4,0,-2
1584991658.3036675,127,11,1,-8,2,-15,1,25
1584991658.3178997,112,-8,-6,8,-10,22,-4,-3
1584991658.3178997,-128,12,10,10,10,4,-6,-35
1584991658.324,127,-2,0,-3,6,1,5,27
1584991658.324,56,0,-4,0,-1,-3,-3,9
1584991658.3390372,-55,8,6,3,5,1,-1,-5
1584991658.3390372,-51,3,2,3,1,3,-1,-4
1584991658.3464975,-37,4,0,-2,1,-3,1,-5
1584991658.3464975,-22,-1,0,1,0,-5,-2,0
1584991658.362326,-8,0,-1,2,-1,-2,-2,0
1584991658.362326,0,-2,-5,1,-1,0,-3,1
1584991658.3631997,-1,-4,-3,-4,-1,-2,-1,-4
1584991658.3631997,0,-3,-1,-3,-7,-2,-3,2
1584991658.3765216,-2,-1,-4,-1,0,2,-1,-1
1584991658.3765216,1,1,-1,0,-4,1,3,1
1584991658.3840938,-1,-4,-5,-1,-2,1,-3,-3
1584991658.3840938,-3,0,-2,-1,-1,-1,-2,0
1584991658.3990114,1,5,7,4,0,4,2,1
1584991658.3990114,8,-12,-1,-3,0,0,-1,1
1584991658.4065306,16,16,3,-1,0,-2,1,2
1584991658.4065306,-19,-5,7,0,1,-4,-4,-6
1584991658.4222994,5,3,1,-3,0,-1,2,0
1584991658.4222994,4,-13,-10,-2,-3,2,0,2
1584991658.4235883,-6,0,-6,-2,0,3,2,0
1584991658.4235883,-1,1,4,-1,-2,3,0,-3
1584991658.4365065,0,1,2,2,-1,-3,-1,1
1584991658.4365065,-16,-1,0,3,0,-1,2,-4
1584991658.4439793,33,-7,1,1,1,1,4,10
1584991658.4439793,4,3,-4,-5,0,1,-1,-1
1584991658.4590473,2,-4,-1,4,-2,-4,-3,2
1584991658.4590473,-10,3,-1,0,-1,2,0,-2
1584991658.4665608,13,-3,-2,-1,-4,-2,-1,8
1584991658.4665608,-8,1,4,1,-1,2,3,0
1584991658.4822588,5,-1,1,-3,0,3,-6,-2
1584991658.4822588,17,1,2,-1,2,-1,1,0
1584991658.4836469,-39,0,5,-3,3,2,-1,3
1584991658.4836469,-5,-1,2,-1,-1,0,0,-3
1584991658.4964957,16,-2,1,4,2,0,2,5
1584991658.4964957,6,0,-1,-5,1,0,-3,1
1584991658.5040116,-13,-3,-1,0,1,-1,-4,-5
1584991658.5040116,-1,2,3,1,0,0,4,2
1584991658.5190256,-6,0,-1,-2,1,-1,3,-1
1584991658.5190256,13,4,1,-2,0,1,-3,1
1584991658.526499,-5,1,0,-1,2,-1,-3,0
1584991658.526499,12,0,-1,0,-3,-1,3,0
1584991658.542138,-3,-2,-4,3,-1,-3,-1,1
1584991658.542138,-2,0,3,2,1,-2,1,0
1584991658.5433674,6,5,0,-1,0,-1,3,5
1584991658.5433674,18,5,3,-2,1,1,-3,-2
1584991658.5565474,-4,-6,-5,-2,2,1,2,-4
1584991658.5565474,4,3,2,0,-1,0,0,0
1584991658.5639722,25,0,2,-2,4,-3,1,2
1584991658.5639722,-43,-11,0,0,-1,-1,-2,2
1584991658.5790143,6,-3,-3,-1,-2,-4,0,2
1584991658.5790143,-5,3,-1,1,2,1,0,-2
1584991658.5947099,0,2,2,-1,4,2,-3,-3
1584991658.5947099,-20,-2,-1,-4,-4,2,0,-9
1584991658.6014988,17,3,1,1,-1,-3,-1,-2
1584991658.6014988,46,-14,-11,-5,-3,-4,-5,9
1584991658.6094503,-14,-1,-3,-6,1,-4,1,-3
1584991658.6094503,-3,-2,-2,3,1,1,2,3
1584991658.617934,-15,-8,-5,-1,1,0,0,-2
1584991658.617934,-28,0,2,0,-1,3,0,-3
1584991658.6240509,12,2,-3,-2,0,-1,-2,1
1584991658.6240509,1,3,3,0,-3,0,-1,-1
1584991658.6390376,3,3,1,-1,-1,-1,1,-3
1584991658.6390376,1,0,0,-1,-1,0,0,0
1584991658.646526,1,2,1,-4,-2,-2,1,-2
1584991658.646526,-12,1,3,1,-2,-3,-1,-5
1584991658.6614814,5,-6,-3,-2,-2,0,0,3
1584991658.6614814,14,0,-3,-2,-2,-5,0,-4
1584991658.6696582,-3,4,1,-1,3,-2,-2,-1
1584991658.6696582,12,-2,-1,0,-1,0,-4,5
1584991658.6764526,-21,-1,-3,1,-3,1,-3,1
1584991658.6764526,-1,1,0,-1,-1,2,3,-3
1584991658.683984,-8,1,-1,-3,2,-3,0,-3
1584991658.683984,4,2,3,4,1,-1,-1,-5
1584991658.6989584,4,-3,-4,1,1,2,-3,-4
1584991658.6989584,-15,-5,-2,-1,-4,-1,-3,10
1584991658.7064986,-2,-6,4,-3,-4,0,0,-3
1584991658.7064986,-11,-3,-4,-4,-3,-1,2,-1
1584991658.721489,-8,0,-2,3,0,2,-1,-5
1584991658.721489,-7,2,0,0,1,2,2,0
1584991658.7296796,1,1,-1,-3,0,-6,-3,-2
1584991658.7296796,-1,1,-3,0,2,2,-1,0
1584991658.7365067,-1,-3,-4,-3,1,0,-2,1
1584991658.7365067,-4,-1,-2,0,1,0,0,1
1584991658.7440326,-2,0,2,2,-1,1,-2,2
1584991658.7440326,-6,-2,2,0,-2,-2,2,3
1584991658.7589722,-6,-1,-3,-4,-1,0,1,-5
1584991658.7589722,-2,-2,-2,1,-2,-3,5,2
1584991658.7665284,-9,1,-2,-1,-2,-4,-2,-2
1584991658.7665284,11,1,2,1,-1,-3,-1,0
1584991658.781485,-11,0,-2,1,-3,-1,3,-3
1584991658.781485,-24,-4,1,1,0,0,-1,-3
1584991658.789704,27,8,0,-1,0,-1,1,2
1584991658.789704,-3,-1,3,-2,-3,1,-3,-5
1584991658.8047428,-7,2,3,0,0,2,0,-1
1584991658.8047428,-4,0,0,1,1,3,2,0
1584991658.8061645,-2,-1,-2,-2,0,-4,-1,-5
1584991658.8061645,-2,2,1,-3,2,-1,0,0
1584991658.81905,-3,0,2,0,-1,1,0,2
1584991658.81905,-6,-4,2,-4,-3,-1,0,2
1584991658.8265207,-21,3,-5,-3,-4,2,3,-6
1584991658.8265207,25,3,0,-2,-3,2,2,6
1584991658.8517885,14,2,-3,1,-2,-1,-2,-3
1584991658.8517885,11,2,-1,-2,-2,-1,-2,0
1584991658.8530545,-11,2,-3,-3,2,-2,1,-3
1584991658.8530545,-5,3,2,2,1,0,0,2
1584991658.8728755,-4,-6,-1,0,0,2,1,-2
1584991658.8728755,15,-4,-3,-3,0,0,-3,-3
1584991658.8741477,-23,-6,-4,-1,-1,-4,-1,1
1584991658.8741477,19,-5,-1,4,1,2,-2,4
1584991658.8789847,61,11,-1,-4,-2,0,0,11
1584991658.8789847,-54,-7,-3,-2,1,-1,-3,-8
1584991658.8865345,8,6,-1,-3,1,-4,-2,2
1584991658.8865345,-9,-4,-6,2,1,-2,0,-2
1584991658.9014616,-2,-1,0,2,2,2,-3,-5
1584991658.9014616,2,-3,-1,-2,-2,0,-5,-1
1584991658.90971,2,-3,-1,0,-4,1,1,-1
1584991658.90971,6,-2,0,-2,-4,-1,-2,2
1584991658.924656,1,-4,3,2,2,-1,-3,-6
1584991658.924656,-2,-2,0,-1,-2,-1,-3,-4
1584991658.9258544,1,-1,-1,1,0,-3,-1,-1
1584991658.9258544,-3,-1,1,1,0,-3,4,-2
1584991658.9390917,-34,-1,3,0,2,0,0,-7
1584991658.9390917,5,7,0,3,0,3,-4,-3
1584991658.9465244,25,-1,-5,0,0,1,2,13
1584991658.9465244,-13,-5,-3,-1,-3,0,-3,-2
1584991658.9614713,-30,-1,-2,3,1,-1,1,-1
1584991658.9614713,23,1,-6,-1,-1,0,-3,-6
1584991658.9694245,15,0,0,-2,-1,-5,0,0
1584991658.9694245,5,5,2,0,0,-1,-4,5
1584991658.984673,36,2,-5,1,0,0,-1,4
1584991658.984673,-23,-1,1,-1,1,1,0,2
1584991658.9860017,26,1,-1,3,0,-4,0,-4
1584991658.9860017,-21,2,-3,-3,-1,2,-3,-2
1584991658.998949,9,1,2,-1,0,-1,1,-2
1584991658.998949,1,0,0,2,0,2,3,-3
1584991659.0064461,-8,6,2,0,-1,0,2,3
1584991659.0064461,12,1,-1,-4,0,0,-5,4
1584991659.021506,3,-3,-3,1,1,1,-2,-4
1584991659.021506,-19,3,3,0,2,1,-1,0
1584991659.0296214,11,1,2,0,-4,-1,0,4
1584991659.0296214,9,-1,-3,-2,3,0,-1,1
1584991659.0446384,-20,-7,-1,-1,-1,-1,-1,-20
1584991659.0446384,-55,-6,-3,1,-1,-2,-2,7
1584991659.045907,33,2,3,1,0,-2,0,1
1584991659.045907,-20,-4,1,3,-2,1,4,-1
1584991659.0589418,-10,2,3,2,4,-1,0,-2
1584991659.0589418,-67,0,1,-2,3,1,-3,-10
1584991659.0664918,45,4,2,1,-2,-2,-1,5
1584991659.0664918,98,-15,-16,-9,-6,-5,-1,14
1584991659.0815082,0,6,4,-1,1,1,1,-2
1584991659.0815082,4,1,2,-1,2,1,-3,-1
1584991659.0896726,-22,1,2,-1,2,0,2,2
1584991659.0896726,-25,3,3,-2,1,1,2,-8
1584991659.1046803,-14,-1,2,0,0,1,1,-5
1584991659.1046803,-1,-1,-1,-1,-1,-3,-1,10
1584991659.1060162,-6,-6,0,1,1,-2,3,-3
1584991659.1060162,89,-12,-10,-9,-3,-5,-6,-1
1584991659.1189768,25,3,2,1,-4,3,-3,8
1584991659.1189768,-55,8,2,4,1,1,5,-3
1584991659.1268883,95,-6,-6,-5,-1,-6,0,0
1584991659.1268883,-57,1,1,-1,2,-2,3,-9
1584991659.1504269,-34,15,10,6,2,6,5,3
1584991659.1504269,103,-10,-11,-4,-7,-7,-7,-4
1584991659.151559,5,4,1,0,-4,-1,-1,-3
1584991659.151559,-5,-2,-4,-2,-4,0,-2,1
1584991659.165293,-19,1,4,1,1,-2,1,-1
1584991659.165293,2,4,0,0,2,1,-2,-2
1584991659.1676016,-3,2,-2,-1,1,-1,2,3
1584991659.1676016,0,2,0,-1,-1,0,2,-4
1584991659.1790218,3,-1,-2,0,-3,-5,2,-4
1584991659.1790218,1,-3,-2,2,-2,-1,1,-1
1584991659.1873238,2,3,2,-1,-4,-1,2,-2
1584991659.1873238,1,8,10,3,1,0,-2,-2
1584991659.201488,2,7,-9,-4,-2,1,-2,0
1584991659.201488,3,3,7,1,2,-1,-3,-4
1584991659.2100115,-4,-10,-9,-6,-3,-3,0,-5
1584991659.2100115,-3,-11,-15,-5,-4,-4,-3,0
1584991659.2245936,-17,38,31,7,1,2,-3,-4
1584991659.2245936,3,-3,-1,1,-2,-1,-3,-1
1584991659.2255096,13,2,-5,-2,-1,1,2,3
1584991659.2255096,2,-37,-16,1,1,-1,2,1
1584991659.239025,-18,23,10,3,-1,-2,-2,-4
1584991659.239025,7,-8,-3,-2,1,2,-2,4
1584991659.2464983,-4,-3,-4,0,9,2,-1,-3
1584991659.2464983,10,18,14,4,-7,0,3,-2
1584991659.2615445,-13,-8,-7,-3,-4,2,2,-1
1584991659.2615445,-5,-12,-6,-2,1,0,5,0
1584991659.2697468,3,-2,-1,-2,-9,-1,-3,2
1584991659.2697468,2,-5,-1,0,-5,-5,-2,-3
1584991659.284626,0,1,1,2,3,2,-1,4
1584991659.284626,0,-2,5,2,3,0,2,-4
1584991659.2854714,1,4,-1,-3,2,2,-1,0
1584991659.2854714,1,4,-1,-3,-1,1,-3,-6
1584991659.2989273,-14,7,0,0,3,2,-1,-1
1584991659.2989273,7,5,2,0,0,-1,2,0
1584991659.3064804,17,3,-1,-8,-6,-1,2,4
1584991659.3064804,-33,-1,3,32,15,5,3,-1
1584991659.3214662,31,3,-3,-6,-31,-16,-4,0
1584991659.3214662,-2,-11,-1,-19,-11,-27,-4,10
1584991659.3296845,51,10,-1,-7,0,-9,4,-15
1584991659.3296845,-24,-2,-1,40,12,-12,1,6
1584991659.3446467,-14,-9,-4,-19,-23,19,-2,-2
1584991659.3446467,48,-2,1,-5,2,31,4,7
1584991659.3459256,71,-13,-9,-4,-3,-1,0,10
1584991659.3459256,-39,-3,1,2,0,3,-1,8
1584991659.3589735,-33,3,2,4,3,-1,-3,-14
1584991659.3589735,25,-5,-3,1,-1,-1,-5,7
1584991659.3664646,-15,-4,-1,0,1,-2,0,4
1584991659.3664646,-5,6,4,2,-2,-1,5,1
1584991659.38144,-4,2,4,-1,0,1,-2,-4
1584991659.38144,6,4,-12,-2,-5,-3,-4,1
1584991659.3896837,11,47,27,2,4,-2,-1,-6
1584991659.3896837,-4,13,-2,-5,-4,-2,-1,-5
1584991659.4047103,-1,-21,-4,0,1,2,0,0
1584991659.4047103,11,-13,-6,2,4,-2,2,2
1584991659.4061117,5,2,0,-1,-3,-3,1,-2
1584991659.4061117,-6,5,2,3,11,1,-1,-3
1584991659.4271216,8,8,4,3,-3,0,1,1
1584991659.4271216,1,-24,-15,-17,-43,-9,-3,0
1584991659.4284613,7,30,23,0,9,2,0,-1
1584991659.4284613,6,-19,-8,-1,-7,-4,-4,2
1584991659.4517279,0,2,6,4,1,4,5,9
1584991659.4517279,-6,-3,-3,-4,-9,1,0,-2
1584991659.4533641,-2,9,4,-4,5,0,-3,-3
1584991659.4533641,19,-3,-1,0,3,1,3,3
1584991659.4646196,26,-1,3,4,4,0,4,1
1584991659.4646196,-71,4,2,3,3,1,-1,-8
1584991659.4655147,62,3,1,0,3,-3,1,4
1584991659.4655147,-56,-6,-4,-2,-3,-3,-4,-10
1584991659.4789786,-2,6,-1,1,3,1,-2,4
1584991659.4789786,109,-8,-10,-7,-7,-1,-6,-6
1584991659.4864812,-89,-5,-3,-4,-1,9,-1,-5
1584991659.4864812,83,3,0,-6,0,11,2,2
1584991659.5014396,80,6,4,-6,10,6,5,0
1584991659.5014396,-10,6,9,24,5,3,1,-9
1584991659.5096822,-4,10,3,0,-7,-2,0,7
1584991659.5096822,-5,-8,-6,-6,-2,-29,-5,9
1584991659.524653,-13,2,0,3,-5,-1,-5,-3
1584991659.524653,-23,3,3,-2,2,1,-3,-10
1584991659.5255172,22,-2,-6,-3,-2,-5,-4,6
1584991659.5255172,-7,3,0,1,0,0,-1,-1
1584991659.5389159,-6,1,1,3,2,-4,2,-2
1584991659.5389159,-3,-4,-1,1,-4,-2,-1,-4
1584991659.5464206,1,4,3,3,1,-3,-2,2
1584991659.5464206,3,2,0,-1,-2,-1,1,1
1584991659.561447,-1,1,3,-2,-3,-5,-2,2
1584991659.561447,5,-8,-2,-1,0,-2,1,-1
1584991659.5690567,0,-1,-1,0,-2,-5,0,1
1584991659.5690567,-2,-2,-3,1,-1,0,-2,2
1584991659.584052,-3,-5,-3,-2,-5,5,-2,-3
1584991659.584052,-25,-8,-6,-4,-6,-1,-5,-4
1584991659.592185,13,2,-9,-3,-4,-4,-3,3
1584991659.592185,-10,16,24,4,0,1,2,-2
1584991659.5990055,-4,11,1,4,5,2,3,1
1584991659.5990055,10,-24,-8,0,2,-1,-2,1
1584991659.606396,16,40,11,3,0,-1,0,-1
1584991659.606396,2,-13,-3,0,-1,1,3,4
1584991659.629633,-33,13,9,1,0,-1,0,-10
1584991659.629633,1,-8,-2,0,2,-3,0,-2
1584991659.6305459,40,-17,-14,-4,-5,-5,-4,19
1584991659.6305459,3,-5,-3,-2,1,1,2,-3
1584991659.6439893,-9,1,1,0,-1,-2,-3,-8
1584991659.6439893,9,2,0,1,-2,2,4,2
1584991659.6522756,-25,-1,-1,0,-3,-1,2,-11
1584991659.6522756,-10,4,2,3,1,1,1,0
1584991659.658948,24,1,-1,0,-1,1,-1,4
1584991659.658948,39,-8,-6,-4,-2,-4,-1,11
1584991659.666445,-10,2,-3,1,1,2,-2,-3
1584991659.666445,-28,2,-1,1,0,-2,3,-1
1584991659.6814847,-21,-2,-2,-2,4,-1,-1,-6
1584991659.6814847,-1,2,0,0,0,1,3,1
1584991659.6890848,-3,0,-1,-3,-3,0,1,-1
1584991659.6890848,-4,2,-1,1,-1,0,-2,-8
1584991659.7054245,4,-4,0,-3,-3,-4,1,-5
1584991659.7054245,0,0,-1,-2,1,-3,-2,3
1584991659.7121623,-3,0,-4,-5,1,-3,3,0
1584991659.7121623,2,0,0,1,4,1,1,0
1584991659.7189376,-2,0,-1,0,0,-1,3,4
1584991659.7189376,-10,-1,-2,-4,-3,-1,2,-4
1584991659.7264616,-6,3,1,-2,-4,-3,-3,-3
1584991659.7264616,-9,-3,0,0,0,-4,0,-3
1584991659.7414465,45,-8,-2,1,0,-4,2,6
1584991659.7414465,3,7,5,0,3,2,-3,-1
1584991659.749637,-9,2,1,-3,0,0,-1,-1
1584991659.749637,1,1,-2,-3,-1,-2,-2,1
1584991659.7639325,-2,-1,0,0,1,1,-1,-3
1584991659.7639325,-2,0,0,-1,0,-2,0,-3
1584991659.7721577,-3,0,-2,-3,-1,0,1,-4
1584991659.7721577,-7,-5,2,2,0,-2,0,1
1584991659.7873244,-2,4,1,2,-2,-1,1,1
1584991659.7873244,18,2,4,-1,2,1,-1,-4
1584991659.7881505,22,1,-6,0,0,-1,4,7
1584991659.7881505,4,8,9,0,0,2,-1,3
1584991659.810294,-17,1,0,0,1,1,0,-3
1584991659.810294,6,0,-2,2,0,1,-3,-1
1584991659.8116276,4,-6,-2,1,-4,-2,0,2
1584991659.8116276,-9,-1,1,2,0,-1,0,0
1584991659.8239598,-1,3,0,-1,-2,2,-1,1
1584991659.8239598,0,-1,0,0,1,-2,-1,1
1584991659.8321228,0,2,-3,-2,-3,-3,0,1
1584991659.8321228,-1,-2,2,2,-3,4,3,0
1584991659.8472047,-1,-1,0,-1,1,2,-1,-4
1584991659.8472047,-5,0,-4,0,0,0,-2,1
1584991659.8480866,-21,-5,1,0,0,-2,1,-4
1584991659.8480866,4,-3,0,-3,-1,-2,-3,-1
1584991659.8614683,8,1,4,0,0,-1,0,1
1584991659.8614683,-41,-8,-4,-3,-4,-2,-3,-6
1584991659.8696656,1,1,1,-2,-1,-2,2,3
1584991659.8696656,0,4,2,2,3,1,4,1
1584991659.884011,0,-1,1,-4,-2,-1,-2,-1
1584991659.884011,-5,-3,1,-2,-1,-1,0,-2
1584991659.892145,-13,-3,1,-1,-2,-4,2,4
1584991659.892145,19,5,3,4,3,-5,0,2
1584991659.9071152,-19,-3,-3,-1,1,-1,-3,0
1584991659.9071152,66,2,1,0,-3,2,-5,10
1584991659.9084575,-1,-9,-2,0,-1,1,2,8
1584991659.9084575,-63,-1,1,2,4,1,5,-5
1584991659.921451,-6,3,-1,-1,2,0,-1,-3
1584991659.921451,-6,0,0,0,1,-3,0,0
1584991659.929411,-3,1,0,-4,0,1,2,2
1584991659.929411,0,-1,-3,-2,-3,0,1,-1
1584991659.943947,1,2,1,1,0,0,-1,-2
1584991659.943947,-3,1,-2,-4,1,-2,-3,-3
1584991659.9521103,-1,4,3,-3,-7,-3,2,7
1584991659.9521103,4,0,-1,-2,1,-1,-4,-4
1584991659.9671066,1,-1,0,0,1,-1,0,0
1584991659.9671066,15,-5,-1,0,-3,-1,-4,-4
1584991659.96794,5,3,0,-3,1,1,1,-1
1584991659.96794,-3,2,-2,0,-3,1,-1,-2
1584991659.9828598,2,2,-1,-1,-1,-1,-1,3
1584991659.9828598,4,1,0,0,0,-2,0,0
1584991659.9896157,2,1,2,-4,-3,-1,1,-3
1584991659.9896157,-26,-4,-2,-2,1,1,-1,1
1584991660.0040417,-26,-1,-6,-2,1,-1,-3,-5
1584991660.0040417,3,-5,0,5,-1,2,2,5
1584991660.0121288,5,13,7,4,2,-3,1,-1
1584991660.0121288,31,-3,-6,-2,-3,-2,-1,-7
1584991660.0270932,-31,-12,-4,-2,-1,3,-5,0
1584991660.0270932,4,5,-3,2,-2,-4,-2,2
1584991660.0285163,-3,-1,2,5,0,-1,4,-4
1584991660.0285163,-2,1,3,2,0,-2,2,1
1584991660.0517337,5,0,1,0,-3,-2,-1,1
1584991660.0517337,-4,1,-3,-1,-1,-4,1,-2
1584991660.0535364,-8,5,3,-3,-3,-1,-2,-1
1584991660.0535364,-14,2,1,0,-2,1,5,-1
1584991660.0639765,1,-3,-2,-4,-2,1,-1,-3
1584991660.0639765,-2,2,3,3,1,-3,1,-1
1584991660.0721252,3,-2,-4,-2,-4,-3,-1,0
1584991660.0721252,4,-2,-3,-3,-1,-1,-1,6
1584991660.0870914,-17,0,-1,-3,-2,2,-3,-5
1584991660.0870914,7,-4,0,-1,-1,1,0,-8
1584991660.0882695,6,-3,2,0,-3,-1,-1,7
1584991660.0882695,-10,1,-1,3,3,0,1,-2
1584991660.1014216,38,0,0,0,-3,-1,1,7
1584991660.1014216,-38,1,-1,2,3,0,1,-6
1584991660.1096802,22,-3,-3,-9,-3,-5,-7,5
1584991660.1096802,4,-7,1,-3,-4,1,-2,-4
1584991660.12395,23,1,-2,1,-1,-1,-1,6
1584991660.12395,-38,-3,0,-1,2,-2,0,0
1584991660.1320684,-4,4,-3,1,-7,-1,1,0
1584991660.1320684,-6,5,3,0,0,6,1,-3
1584991660.1471567,16,0,-3,0,2,-2,-5,2
1584991660.1471567,-1,3,-1,0,-1,1,-1,1
1584991660.1480877,-6,-1,-3,2,-3,-6,-3,-8
1584991660.1480877,17,-3,0,-1,-3,-2,-1,3
1584991660.161454,2,0,-2,-3,1,0,0,1
1584991660.161454,7,2,-1,2,-3,2,-3,-1
1584991660.1696434,-10,-4,1,-1,-2,-1,0,-1
1584991660.1696434,-13,6,2,2,1,-1,4,0
1584991660.184075,27,-1,-1,0,0,-2,0,6
1584991660.184075,-2,-5,-2,-2,-1,-2,-4,-9
1584991660.1921964,-3,1,-1,1,2,0,0,4
1584991660.1921964,-21,4,3,2,-2,3,1,-1
1584991660.2071023,-4,5,2,0,2,2,-2,5
1584991660.2071023,10,-4,0,1,-2,0,-2,-9
1584991660.2082906,17,-8,-6,-5,0,-6,-3,6
1584991660.2082906,-4,0,3,2,1,0,2,-1
1584991660.2214572,-13,4,6,-2,-2,2,0,-1
1584991660.2214572,16,0,1,3,2,0,0,0
1584991660.229103,-18,-3,-2,2,-2,0,2,0
1584991660.229103,15,2,1,-4,-1,0,1,2
1584991660.2439194,-15,-4,-2,-1,-3,-3,-4,-6
1584991660.2439194,14,-3,0,3,-2,2,-3,7
1584991660.2596273,-13,1,-1,-2,-2,0,2,5
1584991660.2596273,3,-6,1,-2,0,4,1,-4
1584991660.2754729,19,-8,-6,1,-3,-2,-3,6
1584991660.2754729,-8,1,2,-2,-6,-2,-1,-2
1584991660.2767715,-17,0,1,-1,-2,-1,2,2
1584991660.2767715,-22,-4,-2,1,0,1,2,-5
1584991660.2814183,11,2,2,-1,-4,2,-5,2
1584991660.2814183,1,-2,-2,-2,0,-2,-3,-1
1584991660.2890549,-11,-2,1,-3,-1,1,1,3
1584991660.2890549,6,-3,0,-2,1,-2,-1,0
1584991660.3039532,-20,0,2,-5,1,2,1,-4
1584991660.3039532,19,-2,-2,-4,-1,2,0,-4
1584991660.3128343,-7,-8,-7,-9,-5,-4,-3,8
1584991660.3128343,3,2,0,0,0,1,0,9
1584991660.327034,-32,-2,0,3,2,0,-2,-12
1584991660.327034,-19,-4,-2,-5,-3,-1,-3,-7
1584991660.3278356,36,1,2,1,1,0,3,2
1584991660.3278356,2,0,2,2,0,0,5,3
1584991660.341445,3,3,2,-1,0,0,-2,4
1584991660.341445,-16,-6,-3,-4,-4,-2,-6,-14
1584991660.3490913,-4,-4,-1,-1,-4,-2,1,2
1584991660.3490913,-4,4,1,2,4,0,1,-5
1584991660.3653266,16,1,-1,1,-1,-1,0,-4
1584991660.3653266,-1,0,-1,-3,-2,-2,-1,2
1584991660.3721337,7,4,2,-2,-3,0,1,-7
1584991660.3721337,-9,0,6,4,1,-1,0,0
1584991660.3870988,-23,-1,0,-1,2,-1,1,-1
1584991660.3870988,32,-3,-6,0,0,-3,-6,3
1584991660.3882515,22,5,3,2,-2,-4,-2,7
1584991660.3882515,-1,-3,-3,2,1,-1,0,3
1584991660.4096181,37,-1,2,-3,1,-1,-3,3
1584991660.4096181,-9,3,0,1,0,-4,-2,-5
1584991660.410847,-2,-1,-1,1,1,0,4,1
1584991660.410847,-6,11,10,1,0,-1,4,3
1584991660.423907,1,-6,-6,2,0,2,-1,2
1584991660.423907,-3,-6,-10,-1,0,2,2,-1
1584991660.432106,-7,-10,-4,-3,-5,-2,2,0
1584991660.432106,-1,-41,-23,-1,-4,4,3,0
1584991660.4470663,9,38,17,0,4,1,-4,-7
1584991660.4470663,15,-7,-5,0,11,2,1,2
1584991660.4484046,-17,-5,-1,4,14,0,1,-1
1584991660.4484046,10,6,-17,-10,-10,-3,-1,-1
1584991660.4614522,0,1,1,0,-13,-1,1,-1
1584991660.4614522,-3,-18,-1,1,4,0,-2,-2
1584991660.4690225,4,-7,-11,-10,-18,-9,-5,-3
1584991660.4690225,1,-5,-2,-8,-19,-7,-9,-6
1584991660.4839356,2,-3,-4,1,12,5,3,6
1584991660.4839356,4,-2,0,0,1,-2,-4,3
1584991660.492087,-2,1,4,-1,1,-2,0,1
1584991660.492087,1,0,-2,1,2,-2,3,-2
1584991660.5064576,-35,-1,0,5,9,4,1,-3
1584991660.5064576,20,6,1,-9,4,2,0,0
1584991660.514653,-14,-5,-1,15,-4,-1,-5,3
1584991660.514653,32,1,4,13,6,3,0,-10
1584991660.5214128,-29,0,-4,-27,12,0,3,6
1584991660.5214128,23,1,2,6,-9,1,0,-13
1584991660.5371222,127,-5,-4,2,-20,14,-7,-9
1584991660.5371222,-8,-6,-6,-16,6,-24,4,21
1584991660.5438557,-68,16,10,-8,0,3,11,-13
1584991660.5438557,-51,25,7,14,4,-2,2,-13
1584991660.5521634,127,-35,-20,-23,-8,-23,-11,31
1584991660.5521634,-128,17,7,2,4,31,2,-25
1584991660.5664418,105,0,-3,0,-3,-5,5,17
1584991660.5664418,-101,-2,-4,-5,-6,-7,-9,-6
1584991660.5746384,31,-5,2,-1,6,-3,-1,-17
1584991660.5746384,40,-2,-3,-4,-1,-1,-6,14
1584991660.5814545,-38,3,-2,1,1,5,0,1
1584991660.5814545,-18,4,5,0,-1,-3,0,-1
1584991660.5890393,-9,0,-5,-2,-5,-5,-2,0
1584991660.5890393,3,21,14,2,-3,2,0,-6
1584991660.6039698,2,-30,-23,-6,-3,1,0,4
1584991660.6039698,12,61,41,6,1,0,-5,-5
1584991660.6120906,10,-24,-10,0,-1,-1,1,3
1584991660.6120906,36,-13,-38,-3,-4,-3,-4,2
1584991660.6264358,-27,41,54,6,2,-1,-4,-18
1584991660.6264358,10,-46,-25,-8,3,3,2,3
1584991660.6422515,-12,15,17,9,4,1,-4,-1
1584991660.6422515,22,-22,-18,2,10,4,5,4
1584991660.650052,14,31,7,-2,-4,2,-1,5
1584991660.650052,-30,-22,1,-4,-24,-1,3,0
1584991660.657127,12,-18,-16,-12,-14,-10,-2,1
1584991660.657127,-22,15,10,10,39,20,1,-10
1584991660.663906,-21,-18,-8,-5,-44,-25,-19,-2
1584991660.663906,8,4,-6,-18,-29,-16,-1,-3
1584991660.672134,13,-1,-5,-11,-14,1,4,1
1584991660.672134,8,4,-3,0,18,2,2,0
1584991660.686442,-2,2,2,11,18,6,4,-2
1584991660.686442,5,-2,3,6,16,7,4,2
1584991660.6946025,3,0,2,5,13,1,1,7
1584991660.6946025,-5,2,4,4,3,1,1,-2
1584991660.70962,34,4,1,-7,-3,1,3,-2
1584991660.70962,64,3,-2,3,3,2,-1,7
1584991660.7108493,-56,7,8,-9,-8,-16,5,-10
1584991660.7108493,114,-19,-15,0,-12,-6,-5,32
1584991660.723935,-30,9,2,-10,-2,-31,3,0
1584991660.723935,-85,2,0,-2,10,51,-4,-31
1584991660.732125,-50,13,3,-2,-16,5,8,3
1584991660.732125,110,-7,-3,3,-6,0,2,14
1584991660.7464194,-128,22,7,-4,1,-10,0,-36
1584991660.7464194,127,-32,-9,0,0,-2,-4,25
1584991660.7546506,6,-1,1,-3,-5,-18,-5,5
1584991660.7546506,-20,2,-1,3,2,0,0,11
1584991660.7696824,-56,12,5,1,4,4,2,-4
1584991660.7696824,-30,8,5,2,7,1,0,-5
1584991660.7710419,-4,2,-2,3,1,2,3,-5
1584991660.7710419,-5,-1,-6,1,-3,-1,1,-8
1584991660.7839284,0,3,-6,2,1,0,-1,0
1584991660.7839284,8,-3,-3,1,-2,0,-3,2
1584991660.7920856,7,-7,1,-3,1,-1,-1,-1
1584991660.7920856,5,-1,0,1,-3,-4,-3,-3
1584991660.8155165,11,0,4,0,-2,-5,-3,0
1584991660.8155165,-4,-1,1,0,-4,-3,-2,-1
1584991660.816464,1,-15,-3,-3,-6,-1,0,0
1584991660.816464,9,16,9,0,1,0,0,0
1584991660.8296163,33,9,-2,-2,-4,1,0,-1
1584991660.8296163,-56,-7,-7,-2,-2,0,2,-4
1584991660.8309376,58,-34,-10,0,-2,-3,2,6
1584991660.8309376,-9,39,22,4,-2,1,-2,-3
1584991660.8439069,-40,-11,3,5,1,1,-1,-4
1584991660.8439069,-3,-34,-16,-4,-1,1,0,4
1584991660.8521383,-7,9,0,2,-1,0,2,-2
1584991660.8521383,-5,-5,-8,-4,-1,-1,-1,-2
1584991660.8664222,3,9,1,3,2,0,3,3
1584991660.8664222,-4,4,-5,-2,1,-1,3,-2
1584991660.8746243,3,-2,-6,0,-2,1,3,0
1584991660.8746243,-4,-2,2,1,-1,2,0,3
1584991660.8897548,6,1,-1,-1,2,0,-2,-4
1584991660.8897548,-4,-2,3,-2,3,-1,-2,3
1584991660.8910875,1,-1,1,-3,0,0,1,0
1584991660.8910875,4,0,2,1,-1,0,0,-3
1584991660.903966,-13,4,-4,-3,0,0,-3,-3
1584991660.903966,20,1,1,-4,0,-1,0,1
1584991660.9196298,-6,3,0,-4,2,0,0,0
1584991660.9196298,7,-1,0,4,-1,-2,-1,2
1584991660.9264154,-20,0,-4,1,-1,0,-3,-2
1584991660.9264154,9,1,1,2,0,2,1,-1
1584991660.9346576,10,3,0,0,4,3,-1,1
1584991660.9346576,-61,-3,-5,1,4,1,4,6
1584991660.949661,24,-9,-7,-4,-4,-2,-4,-4
1584991660.949661,13,-6,-4,-7,-1,-4,1,5
1584991660.9505835,-8,3,0,-2,2,0,1,0
1584991660.9505835,-13,2,7,-1,1,0,2,0
1584991660.965273,-3,0,-2,-2,0,-4,-4,-3
1584991660.965273,-4,-3,-3,-1,-2,-1,-1,2
1584991660.972078,1,3,-2,-3,-2,-1,-1,2
1584991660.972078,-1,0,2,1,1,1,0,-1
1584991660.9864569,3,-1,3,2,-1,-2,-1,-2
1584991660.9864569,-1,-2,-1,-1,-1,1,0,-4
1584991660.9945943,1,-1,-2,-1,0,2,0,0
1584991660.9945943,-1,-2,-4,-2,2,-5,-1,-2
1584991661.0096066,2,2,-1,4,0,-1,-4,-4
1584991661.0096066,0,0,0,1,-3,-1,-2,-2
1584991661.0109272,2,3,3,3,1,-3,2,-1
1584991661.0109272,-11,-2,-2,-1,2,0,1,-3
1584991661.0239196,7,-4,-5,1,1,0,-2,0
1584991661.0239196,-12,-4,-1,-1,1,0,1,1
1584991661.0321188,21,2,2,-3,-1,-2,2,-7
1584991661.0321188,-2,-5,-4,-1,-4,-1,-1,2
1584991661.0464256,18,-10,-6,-2,0,-1,-2,4
1584991661.0464256,10,8,11,-1,1,2,-3,6
1584991661.0546005,-9,-5,-2,-1,3,1,-3,2
1584991661.0546005,45,-2,-6,3,4,-2,-2,-3
1584991661.069689,7,18,2,0,3,-2,-1,-3
1584991661.069689,-5,-6,-2,-3,-1,-1,0,-2
1584991661.0711389,-3,-4,-2,-3,2,2,0,0
1584991661.0711389,1,-7,-2,0,-1,-1,-4,-1
1584991661.0839105,-1,0,3,-3,1,-3,-1,3
1584991661.0839105,0,-1,-6,0,0,-2,1,0
1584991661.0920854,0,1,1,-4,-1,0,1,0
1584991661.0920854,-1,-1,2,0,-1,-1,3,0
1584991661.1064143,-2,1,-3,-3,4,-4,1,-1
1584991661.1064143,5,-3,-4,-3,1,0,0,0
1584991661.1146398,16,-4,-3,-3,1,0,-1,4
1584991661.1146398,1,-1,-3,-1,0,-1,-1,-1
1584991661.1295564,-7,3,1,-2,1,1,0,0
1584991661.1295564,2,6,-1,-4,-5,-1,1,1
1584991661.1303337,0,0,0,-1,4,1,4,-1
1584991661.1303337,-1,2,-1,-1,-1,0,-2,1
1584991661.1527328,11,-1,-1,-2,-1,-4,2,0
1584991661.1527328,-49,-6,-2,0,-1,-3,0,-4
1584991661.153833,25,-3,-3,3,1,3,-2,-7
1584991661.153833,24,-4,-4,-1,0,-1,-4,-1
1584991661.1668575,13,-9,-1,0,-3,-2,-2,13
1584991661.1668575,-16,1,8,0,2,-1,-2,-15
1584991661.175711,7,5,1,-2,-1,1,1,2
1584991661.175711,8,-3,-3,0,-1,-1,-1,3
1584991661.1977956,-18,-2,-2,-5,0,-3,1,0
1584991661.1977956,2,-5,-1,5,0,-3,-5,-7
1584991661.1990068,5,1,1,-1,4,-2,2,1
1584991661.1990068,-24,1,-1,-5,0,2,0,-2
1584991661.2040389,4,-1,4,1,0,-1,7,-1
1584991661.2040389,1,-5,-2,3,-1,1,-1,0
1584991661.2130241,10,6,1,3,4,-3,2,-3
1584991661.2130241,-4,0,0,-3,-1,2,-3,-1
1584991661.226506,-3,-5,-1,-5,-1,-1,-3,-4
1584991661.226506,-8,-3,-1,1,-2,-2,-6,2
1584991661.2420075,21,0,4,2,0,-3,0,2
1584991661.2420075,2,2,2,-1,-1,-1,-3,3
1584991661.2579765,-4,-3,1,-3,-1,-3,-2,-1
1584991661.2579765,2,3,0,0,-3,-3,4,0
1584991661.2594345,-21,0,4,-1,0,-1,0,0
1584991661.2594345,19,-11,-3,-1,0,0,3,-2
1584991661.263853,43,1,-6,-4,2,-2,-1,11
1584991661.263853,-28,-14,-9,-3,-3,-3,-4,-7
1584991661.2720823,-3,7,3,3,3,-1,1,0
1584991661.2720823,-6,8,0,4,1,-1,1,-1
1584991661.2864268,-3,0,-1,2,-3,0,-1,-6
1584991661.2864268,-5,-3,-1,0,1,0,-3,-3
1584991661.2945902,-6,0,-2,-1,0,0,1,0
1584991661.2945902,15,0,-2,-1,-3,-2,1,-1
1584991661.3096132,15,1,-1,0,1,0,-6,3
1584991661.3096132,-2,-1,-3,0,-2,-4,-3,-3
1584991661.310864,-12,0,3,-5,1,-4,1,-2
1584991661.310864,-3,-1,-2,-1,-4,0,0,-1
1584991661.3238974,-2,-5,-4,3,-3,-1,3,-3
1584991661.3238974,9,-8,1,1,0,0,4,0
1584991661.3321195,9,-4,5,-1,-3,3,-1,4
1584991661.3321195,0,4,3,0,1,1,-2,-2
1584991661.3464184,0,-2,3,3,-4,1,-4,1
1584991661.3464184,4,-1,-4,-1,-3,0,0,-2
1584991661.3546126,-15,0,0,-3,2,-3,-1,4
1584991661.3546126,1,0,-5,4,-2,2,0,4
1584991661.3694851,4,4,-7,1,2,0,-1,-7
1584991661.3694851,40,-2,-3,-5,-2,-2,-4,2
1584991661.3778098,-1,-5,1,1,-3,-3,-1,-3
1584991661.3778098,-7,-1,2,3,-2,1,-3,2
1584991661.3839378,1,0,0,-1,-3,3,-1,-2
1584991661.3839378,4,-2,-2,-2,0,-4,0,4
1584991661.3927913,6,0,1,-2,0,0,0,11
1584991661.3927913,-83,-6,-4,-2,2,1,0,-15
1584991661.4063895,1,1,-2,-4,0,-7,-1,0
1584991661.4063895,-8,2,3,-2,-4,-2,-2,-6
1584991661.4153628,34,5,5,0,0,-3,3,7
1584991661.4153628,-13,0,-1,1,-2,0,2,0
1584991661.429054,-5,-4,-2,1,-3,0,-4,-3
1584991661.429054,-9,0,-2,-4,2,1,-4,-8
1584991661.4377503,25,3,2,0,-1,3,1,9
1584991661.4377503,11,-1,0,-3,-2,-1,-3,1
1584991661.44393,-10,-6,-3,2,-1,-1,4,0
1584991661.44393,-4,-7,1,-2,-2,-4,2,4
1584991661.4527855,1,2,-2,-4,-2,2,0,-2
1584991661.4527855,-26,-4,-1,-8,-5,-2,-1,-7
1584991661.4664407,-19,1,1,0,-1,-2,2,5
1584991661.4664407,17,5,3,-2,-1,0,3,-1
1584991661.475398,10,-5,0,1,-1,0,1,7
1584991661.475398,-35,-1,-1,1,0,1,1,-1
1584991661.4890707,-23,-5,2,-2,-4,1,0,-2
1584991661.4890707,32,0,0,0,1,-2,-2,-1
1584991661.4977844,20,0,-2,-5,-3,-2,3,-9
1584991661.4977844,-32,3,3,2,2,-1,-2,-6
1584991661.5039756,-20,-9,0,1,3,-2,0,1
1584991661.5039756,29,-2,-5,-4,1,2,1,2
1584991661.5127575,-35,5,2,-4,0,0,2,-13
1584991661.5127575,66,-4,3,2,-3,0,3,8
1584991661.5264294,-9,-2,-4,-3,1,0,-1,-6
1584991661.5264294,-12,-3,-5,5,-1,1,-5,-6
1584991661.5353205,9,2,-2,3,-1,0,1,4
1584991661.5353205,-9,6,3,2,-6,0,0,-2
1584991661.5490375,7,3,3,4,-1,-1,-2,1
1584991661.5490375,44,-1,-5,-4,0,-2,-3,3
1584991661.5578082,8,-7,-4,-1,0,1,-2,1
1584991661.5578082,-102,11,9,7,3,0,-1,-10
1584991661.5638888,118,-13,-7,-3,0,0,-4,3
1584991661.5638888,-4,5,-1,-2,-2,-1,1,-2
1584991661.5728183,22,3,7,-1,4,0,3,-4
1584991661.5728183,-1,-10,-10,-5,-5,-2,-4,7
1584991661.5863981,-3,5,-1,0,0,2,0,1
1584991661.5863981,-16,0,-1,-1,-1,1,1,0
1584991661.59531,-31,5,0,0,1,0,3,-3
1584991661.59531,10,1,1,-3,1,-1,-2,-3
1584991661.6090307,12,-1,-1,-3,-1,-1,-3,5
1584991661.6090307,-4,-3,0,2,-1,-1,1,-1
1584991661.6177604,-6,4,2,1,-4,-3,4,0
1584991661.6177604,-2,2,2,1,2,0,2,-3
1584991661.632782,-1,-5,1,4,2,4,1,-1
1584991661.632782,-1,-7,-1,-5,6,6,0,0
1584991661.6344893,2,4,1,-1,-13,-19,-1,1
1584991661.6344893,0,2,-3,0,-3,-4,-1,3
1584991661.646847,3,-2,-4,1,-1,0,-3,1
1584991661.646847,1,-2,0,1,0,-2,-2,1
1584991661.6553657,2,4,0,5,2,0,0,0
1584991661.6553657,0,0,2,2,1,-2,0,-3
1584991661.6690245,18,-4,-3,0,-1,3,-3,-1
1584991661.6690245,15,-1,5,-3,2,1,1,3
1584991661.6778023,-51,-9,-12,-6,-3,-3,2,-7
1584991661.6778023,5,16,14,3,2,-2,2,-4
1584991661.6927893,-5,-22,-6,-5,-1,0,-1,2
1584991661.6927893,32,-47,-26,-2,13,1,0,3
1584991661.69451,-26,127,43,13,30,8,1,-7
1584991661.69451,16,-28,3,-1,0,7,7,-6
1584991661.7063966,23,-25,-33,-19,-46,-15,-7,13
1584991661.7063966,-19,11,45,-5,-22,-3,-7,-6
1584991661.7153804,0,-12,-7,2,5,-13,-7,-6
1584991661.7153804,13,21,-2,7,6,2,4,10
1584991661.7290413,-3,-5,-4,4,11,6,2,-5
1584991661.7290413,7,2,-5,-1,3,0,-4,6
1584991661.7377584,-2,2,2,-3,2,-3,1,1
1584991661.7377584,1,-3,-6,-3,3,-1,-3,-6
1584991661.752078,-1,1,-2,2,0,1,3,-2
1584991661.752078,-23,5,-1,9,-1,2,1,-5
1584991661.7589142,10,2,5,-7,-1,-1,1,-1
1584991661.7589142,25,-3,-2,-8,2,1,-1,1
1584991661.7664242,-19,-9,-6,16,2,-2,-3,12
1584991661.7664242,-66,8,7,2,-5,0,-2,-13
1584991661.7753918,-59,5,2,0,-7,2,-2,-5
1584991661.7753918,-20,-13,-7,-7,-8,28,-12,-1
1584991661.7890532,47,-4,1,9,11,17,2,-11
1584991661.7890532,30,11,4,-4,-9,-49,-7,9
1584991661.7977698,47,-4,-1,0,-1,-2,1,31
1584991661.7977698,-80,15,7,7,7,33,2,-31
1584991661.811473,127,-35,-24,-2,-22,-48,-11,0
1584991661.811473,-65,10,3,1,6,-1,3,-2
1584991661.820258,-6,3,0,2,10,2,2,4
1584991661.820258,40,-1,-4,0,0,5,-3,3
1584991661.8264728,34,-1,1,-5,-1,4,-1,7
1584991661.8264728,-31,0,0,0,-1,3,0,-1
1584991661.849347,-43,0,-2,-2,-3,1,2,-4
1584991661.849347,1,3,-3,-5,-4,-2,1,4
1584991661.857759,5,-1,-3,-5,-2,3,1,-1
1584991661.857759,6,-1,3,0,-4,-2,1,2
1584991661.8593643,7,2,-3,-1,1,-1,-1,-4
1584991661.8593643,1,-9,-6,2,-3,-1,-1,-7
1584991661.8802407,9,4,0,0,-1,0,0,-1
1584991661.8802407,7,-39,-23,1,7,0,-1,6
1584991661.8821375,-7,127,69,19,20,7,7,-4
1584991661.8821375,-2,-52,4,-4,2,5,13,-10
1584991661.886796,2,-72,-18,-6,-1,2,-8,6
1584991661.886796,-7,27,0,-5,-47,-8,-2,2
1584991661.8953717,13,19,5,7,10,0,10,0
1584991661.8953717,-5,-43,-8,30,98,19,33,-48
1584991661.908996,15,-42,-30,-26,-92,-51,-33,30
1584991661.908996,-11,23,-4,-52,-84,-30,-12,-27
1584991661.9253042,4,2,-1,2,13,6,-24,-23
1584991661.9253042,-48,0,3,15,26,-8,-20,-26
1584991661.931408,2,-3,0,7,21,6,6,5
1584991661.931408,-5,0,1,9,16,8,8,-16
1584991661.9403791,3,-2,3,11,8,10,5,7
1584991661.9403791,20,-4,-3,2,2,7,6,4
1584991661.9464397,-9,3,1,3,1,1,1,-1
1584991661.9464397,1,-2,-3,-10,-5,-1,5,6
1584991661.9553242,-31,-3,0,-2,-8,-1,-2,-3
1584991661.9553242,91,9,4,0,-3,6,-1,11
1584991661.9689925,-72,12,10,8,8,3,5,6
1584991661.9689925,57,2,2,12,-9,-1,-9,-17
1584991661.9777994,-50,-31,-11,-4,-4,48,-10,5
1584991661.9777994,-4,17,10,8,20,19,20,14
1584991661.9914675,-128,1,-3,-4,-4,-11,-14,-64
1584991661.9914675,127,-19,-10,-3,-3,-6,-4,52
1584991662.0002706,-54,7,-1,-6,2,-6,5,10
1584991662.0002706,-54,-6,-1,6,26,20,4,-12
1584991662.006479,-44,6,4,-18,-34,0,0,-6
1584991662.006479,-28,8,8,4,4,3,-3,2
1584991662.0153606,17,2,3,1,2,-1,0,-6
1584991662.0153606,30,-1,-8,-4,3,-1,-18,-8
1584991662.0293183,33,1,-5,-3,-3,-3,-9,6
1584991662.0293183,-2,3,-1,1,1,2,-3,3
1584991662.0377977,-5,4,4,1,2,-4,3,4
1584991662.0377977,-2,3,2,-1,-2,2,3,-6
1584991662.051359,8,-4,-1,0,-3,-4,4,0
1584991662.051359,-10,1,-2,-4,2,3,2,-3
1584991662.0603242,6,7,-3,2,0,1,-2,5
1584991662.0603242,-3,0,-4,0,-2,-3,2,-14
1584991662.0663755,-36,-7,1,0,-1,-4,-1,-5
1584991662.0663755,127,14,5,3,-1,-4,3,18
1584991662.0759797,1,-5,0,1,-2,-1,-2,-4
1584991662.0759797,-102,-12,-3,0,-1,0,4,-1
1584991662.0890472,-22,5,8,2,3,-1,1,-4
1584991662.0890472,-3,-14,-15,-2,-2,1,5,2
1584991662.0977309,14,-2,8,1,-1,2,4,4
1584991662.0977309,-10,6,-2,-5,-1,-4,-4,-8
1584991662.1114101,4,15,0,-2,0,-2,2,0
1584991662.1114101,4,-17,-5,-1,1,0,4,0
1584991662.1202867,3,-6,-5,3,1,-2,0,-3
1584991662.1202867,1,-5,-6,0,2,-3,2,1
1584991662.1263535,2,-8,-5,-2,-2,-1,1,-1
1584991662.1263535,-2,7,0,-1,1,-1,-3,-5
1584991662.1353562,-1,0,2,-1,2,1,-1,5
1584991662.1353562,-5,-2,-7,0,-4,1,-5,-6
1584991662.149,-8,0,-5,-1,-1,-2,-1,-2
1584991662.149,9,4,0,-1,1,-1,-1,-2
1584991662.1577382,12,2,3,2,-4,1,-2,7
1584991662.1577382,27,4,3,0,-1,1,0,-5
1584991662.1719475,-64,-2,-1,0,-1,2,2,-8
1584991662.1719475,15,-6,-4,-3,-1,-3,-4,9
1584991662.1802764,25,1,-7,-7,-3,-5,-3,-2
1584991662.1802764,-9,6,6,-1,-1,2,-1,-5
1584991662.1864088,-3,6,7,2,-1,-1,1,-5
1584991662.1864088,67,-19,-10,-3,-6,-2,-5,3
1584991662.2028277,-32,4,2,0,1,1,2,-5
1584991662.2028277,18,-2,-4,-2,0,2,1,1
1584991662.2089615,-6,4,-7,-2,-1,-2,-1,-3
1584991662.2089615,25,25,12,1,-2,-1,1,3
1584991662.217793,-2,-14,2,-2,-4,1,-1,-1
1584991662.217793,-20,0,-5,-3,1,-2,-4,-3
1584991662.2327302,17,0,3,5,-1,-1,0,3
1584991662.2327302,-3,-1,0,1,-4,0,2,0
1584991662.234396,2,2,0,-1,-3,1,-1,-1
1584991662.234396,0,5,-1,-1,2,-6,-3,-1
1584991662.246377,4,-1,-3,-1,-1,-3,2,2
1584991662.246377,-7,-3,1,1,0,0,-2,-1
1584991662.2553432,-2,2,-2,0,3,4,-1,-2
1584991662.2553432,3,-3,-2,2,0,-2,-4,1
1584991662.2690504,0,0,-2,3,-1,-2,0,0
1584991662.2690504,16,-1,0,-1,0,1,0,2
1584991662.2777548,9,7,1,-1,1,-1,2,4
1584991662.2777548,3,-1,-4,-2,0,2,-1,-3
1584991662.2927566,-1,-1,0,2,2,2,0,0
1584991662.2927566,11,1,-3,1,-1,1,-1,3
1584991662.2943475,-21,6,3,3,0,-1,1,-3
1584991662.2943475,28,2,1,-5,-1,0,2,-2
1584991662.306396,-12,-1,-3,0,-2,-2,0,-1
1584991662.306396,26,4,0,-1,1,0,-2,-4
1584991662.315325,-35,-2,1,-3,-2,0,-1,-9
1584991662.315325,34,-1,1,-2,-1,-1,-2,7
1584991662.3290732,-7,-7,-5,-1,-6,-1,-3,4
1584991662.3290732,-13,-1,-2,0,1,1,4,0
1584991662.3378017,6,6,2,2,-3,-1,3,2
1584991662.3378017,-2,-1,-1,3,-1,1,1,1
1584991662.3520842,14,-4,-3,-2,-1,-4,2,1
1584991662.3520842,-22,4,-1,-5,-4,-4,4,0
1584991662.3588598,4,-2,5,-1,-3,-3,3,3
1584991662.3588598,-2,-1,-2,1,1,-2,0,2
1584991662.3663728,-4,1,-1,2,-1,1,-5,-2
1584991662.3663728,2,0,-4,-1,2,1,-1,-1
1584991662.3752975,-4,0,-1,-3,-3,4,1,-2
1584991662.3752975,6,0,1,2,1,-1,3,0
1584991662.3890288,-17,0,1,3,-2,-2,-3,0
1584991662.3890288,-5,4,4,1,1,-1,5,-4
1584991662.3977482,16,-3,2,4,2,0,0,2
1584991662.3977482,-6,-5,-1,-1,-2,2,3,1
1584991662.4120743,25,0,2,4,4,2,-2,-5
1584991662.4120743,9,-3,4,-6,-1,-1,-1,5
1584991662.4188688,-26,-3,-1,-2,1,0,-3,-7
1584991662.4188688,22,2,-5,1,-2,0,0,1
1584991662.4263577,-66,1,2,-2,-3,2,-2,-7
1584991662.4263577,60,3,-2,-2,-1,-1,-2,4
1584991662.435905,-9,3,0,-3,-2,-4,-1,7
1584991662.435905,-28,-11,-2,-3,4,0,0,-3
1584991662.4489942,-27,-3,2,-1,-1,1,-2,-4
1584991662.4489942,2,-4,0,-7,2,1,0,2
1584991662.4577463,-1,2,5,3,-1,-1,1,-1
1584991662.4577463,1,-4,-2,2,-1,3,3,-2
1584991662.480247,4,-2,0,-2,0,-1,0,0
1584991662.480247,2,-4,-1,0,-3,0,-3,-2
1584991662.4820163,-1,3,2,2,-1,-1,3,-3
1584991662.4820163,-1,3,-2,-4,-1,1,-1,-4
1584991662.486494,1,1,-4,-2,0,-2,-2,-1
1584991662.486494,10,2,2,-3,1,-2,1,1
1584991662.4953616,-6,-1,1,0,-1,-3,0,0
1584991662.4953616,5,3,0,-2,0,2,-1,-4
1584991662.509036,-24,-1,-3,2,-1,-3,2,-2
1584991662.509036,19,-3,-3,-3,0,-1,4,4
1584991662.5177355,-15,2,-1,-2,-4,-2,0,-4
1584991662.5177355,17,-4,-3,-3,-1,-1,-2,-3
1584991662.5320158,-6,-5,-1,-2,-3,-3,-2,5
1584991662.5320158,-1,2,3,0,3,1,0,-2
1584991662.5387886,-2,1,3,3,-2,-1,-1,-2
1584991662.5387886,-3,2,2,0,-1,0,-2,1
1584991662.5553544,6,-5,-1,-4,-1,2,-3,-3
1584991662.5553544,12,0,2,-2,3,0,0,2
1584991662.5571096,-3,0,1,-1,-1,0,0,2
1584991662.5571096,-8,1,2,-2,1,-1,0,-3
1584991662.5689824,-3,0,-4,0,-2,-3,1,2
1584991662.5689824,4,1,0,-2,3,-1,1,-3
1584991662.585248,-1,1,-1,-4,-5,-1,3,1
1584991662.585248,0,-2,-1,0,0,-1,1,2
1584991662.592061,0,-3,-1,-4,-3,-1,0,-1
1584991662.592061,2,1,-3,2,-1,0,-1,-2
1584991662.5988843,2,2,0,-2,-3,4,3,2
1584991662.5988843,1,0,2,3,-2,-1,-1,2
1584991662.615408,-19,-6,2,-3,1,-1,-3,-4
1584991662.615408,18,3,0,1,0,2,1,2
1584991662.6170974,-1,2,-4,-5,1,-1,0,1
1584991662.6170974,5,1,-5,-2,0,-3,0,0
1584991662.6289728,-1,6,-1,5,-1,4,3,1
1584991662.6289728,-6,-3,-1,0,0,-2,-2,6
1584991662.637767,-25,6,0,-1,2,3,0,-3
1584991662.637767,23,-1,0,0,0,-2,0,-8
1584991662.6520143,7,-3,0,-1,-3,-3,-1,2
1584991662.6520143,-2,-1,0,-1,-1,1,0,1
1584991662.6587594,-6,2,-1,2,0,1,-4,-2
1584991662.6587594,-3,-1,-5,-1,-1,-3,-3,1
1584991662.6759315,-15,-3,2,0,-1,-3,-1,-1
1584991662.6759315,-3,4,0,-1,-2,-1,-2,2
1584991662.677827,1,-5,-1,0,3,-2,-3,-3
1584991662.677827,0,1,-2,0,-1,-2,0,0
1584991662.6891713,2,1,-2,-3,-1,-2,4,3
1584991662.6891713,-2,-2,-1,0,-3,1,-2,0
1584991662.6977816,1,-1,0,-1,0,1,0,-3
1584991662.6977816,2,0,0,-1,2,3,0,-3
1584991662.7120936,-21,-5,2,1,-1,4,0,0
1584991662.7120936,-3,0,-2,-1,-1,-3,-1,2
1584991662.7188506,6,2,0,-2,-3,0,-1,4
1584991662.7188506,12,2,1,1,0,1,-1,-5
1584991662.7353394,-6,3,-2,1,-1,0,2,-3
1584991662.7353394,-14,-1,2,6,2,0,-1,-6
1584991662.7368479,45,-5,-3,-1,0,-1,-3,10
1584991662.7368479,9,1,-1,-2,-2,-3,-2,8
1584991662.757801,-39,-3,2,0,0,-1,2,-16
1584991662.757801,10,-2,-1,2,-1,-1,-5,2
1584991662.7595353,-4,7,2,-2,-1,-2,3,5
1584991662.7595353,-1,-3,-1,1,-3,-1,-3,-11
1584991662.7725859,5,-1,1,1,-3,-4,-1,-2
1584991662.7725859,18,-1,-1,-1,0,0,0,-1
1584991662.778922,-8,1,-3,0,-1,4,3,0
1584991662.778922,6,1,-1,-3,-1,-2,-2,1
1584991662.7953806,3,-2,-1,-1,-1,0,-1,3
1584991662.7953806,1,0,0,1,1,-3,-1,0
1584991662.7972417,1,2,-1,-3,1,1,-3,0
1584991662.7972417,-4,-1,-1,2,-2,-4,1,-5
1584991662.8090234,-2,0,-1,0,-5,-3,-1,1
1584991662.8090234,7,-1,-3,-2,-4,1,-5,2
1584991662.8177693,3,-5,0,-1,0,-4,1,3
1584991662.8177693,-16,-4,-2,0,-1,0,0,-1
1584991662.832071,28,1,1,0,1,-2,-1,4
1584991662.832071,-7,-1,-1,2,1,-1,2,0
1584991662.8388696,-27,5,1,-6,2,-3,-2,-12
1584991662.8388696,-27,-6,-1,-1,0,-1,3,1
1584991662.8558896,5,4,-1,-1,2,-2,-1,-2
1584991662.8558896,2,-2,0,-4,-1,-2,1,3
1584991662.8577094,18,3,-3,-1,0,-1,-3,-2
1584991662.8577094,5,-2,-3,1,-3,-2,-1,1
1584991662.8690152,-12,0,5,3,-1,3,0,-1
1584991662.8690152,6,1,0,1,2,1,-2,-1
1584991662.8777673,3,3,-4,-2,1,-1,0,2
1584991662.8777673,2,1,-2,-3,-2,0,0,2
1584991662.8921628,-36,-4,-2,0,0,-4,-3,1
1584991662.8921628,10,-3,2,2,2,0,-1,-9
1584991662.8988628,-14,0,0,0,3,-1,3,2
1584991662.8988628,3,-6,-3,-4,-2,-1,-1,-1
1584991662.9153383,1,-3,-1,-3,1,0,3,-4
1584991662.9153383,-4,2,0,0,-1,-2,1,-4
1584991662.9166703,3,-1,-3,-1,1,3,0,1
1584991662.9166703,-28,2,0,1,0,0,-8,-9
1584991662.9289947,23,-2,2,1,1,-3,2,6
1584991662.9289947,13,-5,-4,-1,-3,-4,-1,-7
1584991662.937739,15,3,-2,-2,0,-1,3,8
1584991662.937739,3,6,-1,-1,1,-2,1,2
1584991662.9520576,4,-3,-3,0,3,-1,-1,-2
1584991662.9520576,-5,4,-4,0,1,2,3,1
1584991662.9588892,2,-2,-1,-2,-5,0,-1,-5
1584991662.9588892,10,-4,0,-2,-3,0,-1,7
1584991662.9753823,-5,-2,3,-3,1,-2,0,1
1584991662.9753823,1,4,2,1,1,2,-1,-4
1584991662.977142,1,-3,0,0,0,0,3,2
1584991662.977142,-11,0,-4,-1,-1,-2,0,-3
1584991662.9890122,1,1,-1,-2,-2,-2,0,-2
1584991662.9890122,21,-1,-2,0,-2,1,-3,4
1584991662.99775,6,0,1,2,-1,-3,3,-5
1584991662.99775,16,-11,-11,-2,-4,-5,-1,-1
1584991663.0114107,-8,-3,2,1,2,0,1,1
1584991663.0114107,-5,2,2,0,0,1,2,0
1584991663.0202765,-17,1,4,0,1,0,1,1
1584991663.0202765,-42,-4,0,1,-1,0,1,10
1584991663.0352945,24,2,1,-2,1,-2,-4,-6
1584991663.0352945,41,-12,-6,-4,-5,-4,-2,16
1584991663.0371702,-29,-3,-1,-1,-2,3,1,-4
1584991663.0371702,1,3,6,1,-2,-5,0,0
1584991663.0489733,7,5,2,-1,2,5,3,3
1584991663.0489733,5,1,-3,-1,1,1,-2,-9
1584991663.057782,3,-3,-8,2,2,5,1,2
1584991663.057782,-26,-3,-4,1,-1,-2,2,1
1584991663.072015,-10,2,2,3,2,-1,2,-5
1584991663.072015,20,0,0,-5,0,-1,4,9
1584991663.0788474,1,-3,-4,5,3,4,-1,-2
1584991663.0788474,12,-4,0,-4,-12,-3,-4,1
1584991663.095381,-5,4,0,-1,-1,-2,-3,4
1584991663.095381,-13,4,2,1,4,0,2,-15
1584991663.0972676,69,2,-1,-1,3,2,3,9
1584991663.0972676,-13,-7,-4,-1,-3,-4,-3,2
1584991663.1090224,29,5,0,1,3,3,-1,4
1584991663.1090224,-92,4,3,2,-4,3,10,-2
1584991663.117706,54,2,7,2,5,3,4,-33
1584991663.117706,84,-27,-25,-16,-16,-13,-12,1
1584991663.1401348,-35,2,4,11,1,2,-3,-4
1584991663.1401348,-8,6,3,-7,2,2,3,1
1584991663.1415546,-23,6,6,1,-4,-2,1,-5
1584991663.1415546,-26,-3,1,3,2,-1,1,5
1584991663.1554608,-27,-1,-3,1,0,1,-4,-4
1584991663.1554608,25,1,1,-1,-2,-1,-1,1
1584991663.156699,-42,-4,-1,2,0,-1,-6,-11
1584991663.156699,-16,-4,-2,1,1,-2,-1,10
1584991663.1691406,-23,9,4,0,0,0,0,9
1584991663.1691406,42,-7,-4,0,1,-3,-3,10
1584991663.1852348,-86,-1,2,3,-3,3,-1,-3
1584991663.1852348,52,-5,-10,-5,-3,-2,-5,6
1584991663.1915069,37,8,7,2,2,-1,5,18
1584991663.1915069,-9,3,4,-1,2,2,6,-1
1584991663.200212,-46,-3,0,-2,2,5,-1,10
1584991663.200212,127,9,0,3,1,-2,1,-3
1584991663.215137,-84,-24,-16,-3,-8,-8,-17,-55
1584991663.215137,-1,8,3,-4,-14,-4,2,23
1584991663.2183475,-18,7,5,-1,-1,-1,2,5
1584991663.2183475,4,0,-1,3,2,1,-2,-17
1584991663.229043,14,5,-1,-8,-2,0,1,10
1584991663.229043,-7,-1,2,1,4,2,2,-6
1584991663.2377734,4,1,1,-5,1,-2,1,9
1584991663.2377734,-5,0,2,-2,-1,1,5,3
1584991663.2513015,-11,-3,-4,-5,0,-1,-3,-17
1584991663.2513015,2,-4,-3,1,-1,2,5,22
1584991663.267692,-8,4,2,-2,0,-3,-5,-54
1584991663.267692,-7,-3,-7,-2,-3,0,-8,-21
1584991663.2758834,-1,-21,-9,4,10,3,-3,-11
1584991663.2758834,-31,32,28,6,8,-3,-18,-115
1584991663.2774944,12,-10,-12,-10,-23,-7,-2,4
1584991663.2774944,-24,36,19,-1,6,2,-2,7
1584991663.2889621,7,-23,-1,-3,3,3,4,-3
1584991663.2889621,-9,24,0,-7,-26,-12,-13,-62
1584991663.2976952,3,-59,-18,-3,-1,8,4,1
1584991663.2976952,-1,30,13,4,0,-2,6,27
1584991663.3118823,-2,-14,-6,-4,-6,-7,-3,-19
1584991663.3118823,-7,-9,-16,-3,-2,-3,-6,-33
1584991663.3202376,7,1,-3,2,4,2,0,10
1584991663.3202376,3,-1,-6,3,13,3,4,5
1584991663.3345742,2,-3,-3,-10,-16,-1,-1,3
1584991663.3345742,10,6,5,-11,10,4,2,12
1584991663.341324,-10,-5,-5,11,-13,-4,-4,-16
1584991663.341324,-4,0,3,-6,-1,-2,-2,11
1584991663.3489673,23,6,1,0,4,0,5,7
1584991663.3489673,-60,5,-4,-14,-2,4,1,-10
1584991663.357736,27,4,4,14,12,10,10,42
1584991663.357736,-46,2,4,10,8,13,-3,-25
1584991663.3713553,19,-27,-20,-11,-11,-10,-15,-25
1584991663.3713553,53,10,1,6,5,2,12,4
1584991663.3801975,-21,0,2,-7,-8,-5,-8,-25
1584991663.3801975,120,10,4,-3,8,-5,11,28
1584991663.3945744,-128,-43,-21,-26,-19,-10,-15,-48
1584991663.3945744,-81,17,10,37,10,33,2,-41
1584991663.401352,114,-13,-6,6,2,-1,-1,21
1584991663.401352,-41,0,-5,-9,6,-15,-3,5
1584991663.4089472,-61,-8,1,2,4,0,4,-37
1584991663.4089472,100,5,-7,-7,-5,-10,1,41
1584991663.4176557,-128,-6,-1,4,8,42,3,-15
1584991663.4176557,34,20,8,9,7,0,5,3
1584991663.431349,-65,0,0,2,1,0,0,-8
1584991663.431349,-1,-5,-3,1,5,2,2,6
1584991663.4401805,-73,3,-1,-1,1,2,3,14
1584991663.4401805,11,2,-5,-4,-2,2,-3,-1
1584991663.4549353,1,-1,-3,1,-2,-3,0,-5
1584991663.4549353,6,1,2,1,-1,-2,3,6
1584991663.4627435,4,0,0,-3,-5,-4,-1,2
1584991663.4627435,4,-5,-1,-1,-4,1,-4,25
1584991663.477802,-17,-1,0,-2,-1,-2,-4,-51
1584991663.477802,-27,-4,-6,-3,-4,-2,-1,-3
1584991663.4796934,-20,-1,-7,0,0,0,2,15
1584991663.4796934,-1,-13,-1,-2,-2,-4,1,-4
1584991663.4914403,-35,41,24,4,3,-2,2,-5
1584991663.4914403,110,56,10,-1,0,-3,-1,28
1584991663.500199,-55,-27,7,1,1,1,3,6
1584991663.500199,24,-32,-14,0,-3,-1,-4,-17
1584991663.5145683,-39,-2,5,-1,0,-1,-1,-4
1584991663.5145683,7,-7,-7,-3,-4,1,2,4
1584991663.5213096,-13,-14,-9,2,0,1,2,1
1584991663.5213096,5,2,3,2,3,-2,2,5
1584991663.537607,4,6,3,5,5,3,0,16
1584991663.537607,-9,4,-3,-4,0,-2,-8,-53
1584991663.5390787,-4,-43,-17,7,21,10,-4,14
1584991663.5390787,9,64,30,8,14,6,10,10
1584991663.5513241,-5,-17,-3,-18,-58,-11,-4,-4
1584991663.5513241,12,-10,-6,-1,18,5,-5,-6
1584991663.5602267,-9,-12,12,7,-8,-5,4,5
1584991663.5602267,24,31,-16,-27,-55,-20,-7,-4
1584991663.5745692,-23,-17,12,-5,-8,3,9,15
1584991663.5745692,-6,0,7,-1,9,-8,-10,-11
1584991663.589014,6,-8,5,9,11,3,2,28
1584991663.589014,-11,-3,-3,3,10,3,-6,-33
1584991663.5977035,-54,-8,0,6,16,4,2,-14
1584991663.5977035,-24,-2,-3,0,7,0,0,-1
1584991663.599389,26,4,-1,18,3,0,-3,15
1584991663.599389,-50,0,-1,-3,-11,-2,4,-4
1584991663.6114001,5,3,-1,-15,-19,-3,3,3
1584991663.6114001,76,3,0,0,-1,-2,-2,-10
1584991663.6202219,-113,27,13,11,10,8,7,8
1584991663.6202219,127,-40,-8,4,-6,-20,-13,-1
1584991663.6345809,-28,-1,0,-20,-26,9,-3,-22
1584991663.6345809,-25,14,8,15,10,2,6,10
1584991663.6413736,-23,0,0,-1,6,-12,-1,-10
1584991663.6413736,-33,-14,-8,-3,-4,4,-8,-10
1584991663.6577458,96,-1,-5,5,3,31,3,-4
1584991663.6577458,-45,-25,-12,-6,-6,-34,-20,-34
1584991663.6595383,-3,13,5,6,5,0,4,19
1584991663.6595383,-44,10,6,3,5,2,5,9
1584991663.6713197,-3,-1,-1,-2,1,-1,3,-4
1584991663.6713197,-4,5,2,-3,1,2,0,-1
1584991663.6802287,-19,8,3,-2,4,8,0,-1
1584991663.6802287,7,3,-4,-2,-4,-4,-3,8
1584991663.6945658,22,2,-2,0,-1,1,-1,-4
1584991663.6945658,-3,6,5,-1,2,2,-2,0
1584991663.7013113,-38,-7,-5,-2,-2,-5,-6,-13
1584991663.7013113,20,0,0,1,-3,-1,-4,-11
1584991663.717684,15,5,2,2,1,1,6,2
1584991663.717684,6,-4,-5,-4,-1,2,2,4
1584991663.71938,3,3,-1,-3,-1,-3,-3,0
1584991663.71938,17,-1,1,3,-6,1,2,2
1584991663.7401898,-36,10,5,-1,-3,0,0,-7
1584991663.7401898,-3,-10,-10,-1,1,-1,1,4
1584991663.741587,-7,6,-5,-6,-2,-3,-1,1
1584991663.741587,29,-10,-2,-1,-3,-4,-2,0
1584991663.7552197,-9,3,3,1,3,-2,1,7
1584991663.7552197,19,-35,-20,-3,-1,-2,6,6
1584991663.7613077,-34,72,30,5,-2,-2,-4,-9
1584991663.7613077,5,-26,-4,0,-4,1,-3,3
1584991663.77749,-24,-3,-5,-1,-2,-1,0,1
1584991663.77749,-8,-7,-4,-3,-1,-3,-4,-5
1584991663.7852085,0,3,-1,-3,0,1,1,3
1584991663.7852085,5,-6,2,-1,-2,1,0,2
1584991663.791356,11,0,1,0,0,-1,-4,5
1584991663.791356,-14,-3,-1,-1,1,1,1,-1
1584991663.800226,5,0,-2,3,-3,0,1,-9
1584991663.800226,14,4,-1,1,-2,0,-1,4
1584991663.8227584,-10,-1,-2,-3,-2,-2,-4,-1
1584991663.8227584,-3,-2,-1,-2,-1,2,-1,1
1584991663.8245342,12,3,3,-1,1,1,0,-3
1584991663.8245342,3,0,3,-3,1,1,0,0
1584991663.837652,3,2,-1,-3,-1,-5,3,2
1584991663.837652,-3,4,1,2,0,0,0,5
1584991663.8390796,-6,-10,-2,0,2,0,-3,-27
1584991663.8390796,-24,0,2,-1,0,-1,0,-7
1584991663.8513112,-28,-8,-3,-2,-4,-2,0,-1
1584991663.8513112,0,-2,-5,-1,-4,1,-3,-2
1584991663.8676841,24,9,0,-4,0,1,3,19
1584991663.8676841,-45,-11,-3,2,2,1,-3,-17
1584991663.8751855,-7,0,-3,1,-2,1,1,1
1584991663.8751855,50,8,5,0,-1,2,4,15
1584991663.888987,-65,-15,-3,-5,-3,-3,-6,-21
1584991663.888987,8,4,4,2,2,0,2,2
1584991663.8976486,2,-3,-3,-4,1,-2,-2,4
1584991663.8976486,3,1,3,-1,-2,0,0,1
1584991663.8993232,2,4,2,1,-4,1,1,0
1584991663.8993232,-1,-1,-7,-1,-2,0,-1,3
1584991663.9114044,-1,-1,0,-1,0,-1,-2,-2
1584991663.9114044,-1,3,-2,0,4,2,1,-1
1584991663.9201543,4,0,-2,-3,4,-2,0,-1
1584991663.9201543,2,0,2,2,-1,1,-3,-1
1584991663.9345622,4,4,1,-3,-2,2,-1,-1
1584991663.9345622,27,1,0,-1,0,-2,-1,1
1584991663.9413276,-17,1,0,-4,-3,-3,5,-5
1584991663.9413276,-14,1,-1,-2,-3,2,-2,1
1584991663.9577248,5,-4,-5,0,0,0,0,6
1584991663.9577248,5,6,1,-1,-1,-3,2,2
1584991663.9591372,15,-9,-2,-3,-2,-5,-5,-11
1584991663.9591372,-7,2,-1,0,-1,-3,1,3
1584991663.971362,15,0,-5,1,0,0,1,-7
1584991663.971362,18,6,1,-1,0,2,1,12
1584991663.9801767,-42,-2,0,1,0,1,1,-4
1584991663.9801767,-35,-17,-10,-4,-1,-2,-12,-38
1584991663.9945173,36,4,1,1,3,-2,1,6
1584991663.9945173,13,0,2,-4,0,-1,1,7
1584991664.0013118,7,7,2,-1,1,-1,2,4
1584991664.0013118,3,-4,-4,-4,1,-2,-3,3
1584991664.0176744,-2,-1,-2,-4,-1,2,-2,2
1584991664.0176744,-2,-3,-2,-2,-1,5,-1,-3
1584991664.0194342,-3,-5,-3,-1,1,-3,-2,-4
1584991664.0194342,3,3,-4,-1,-2,-2,2,-1
1584991664.0313256,1,-3,2,-2,2,-3,3,-2
1584991664.0313256,-10,-1,-1,-2,-3,-2,0,5
1584991664.0401063,-8,-3,-3,0,-2,1,2,-13
1584991664.0401063,38,2,2,-3,-2,2,-1,10
1584991664.0545607,-78,-13,0,-2,-1,-5,-5,-25
1584991664.0545607,5,-2,-3,1,0,1,-4,2
1584991664.0613332,46,3,0,1,1,-2,0,11
1584991664.0613332,-44,-5,1,1,-2,0,-3,-11
1584991664.0777757,5,-3,2,-1,-2,-2,-2,3
1584991664.0777757,10,5,0,-2,-2,-1,1,0
1584991664.0796309,2,-2,2,1,3,-1,1,3
1584991664.0796309,10,4,4,0,0,3,3,1
1584991664.0913417,-67,1,-2,-5,-4,-1,-3,-4
1584991664.0913417,-21,-4,-2,-1,1,0,0,-18
1584991664.1001642,8,0,-4,-1,0,0,2,7
1584991664.1001642,7,-2,0,-1,-1,-1,1,4
1584991664.12266,15,-1,1,1,-2,2,1,9
1584991664.12266,-9,-3,-5,-1,-1,-1,-2,-19
1584991664.12407,1,3,5,3,1,-1,1,3
1584991664.12407,6,-2,-1,-1,-4,-1,-1,0
1584991664.1452117,-18,-3,-4,2,-1,-3,0,-4
1584991664.1452117,10,6,-3,1,0,0,1,-1
1584991664.1471055,5,-1,-2,-3,-1,-2,-1,-2
1584991664.1471055,2,0,-2,-1,3,1,-2,3
1584991664.151317,-1,0,0,-3,4,-2,1,2
1584991664.151317,-1,2,0,0,2,-1,2,-2
1584991664.1602015,-7,3,-1,1,3,-3,2,-1
1584991664.1602015,41,2,-3,-3,-3,-3,3,6
1584991664.1745062,-37,-6,-5,0,-2,-2,1,2
1584991664.1745062,9,1,2,-3,-1,3,-1,5
1584991664.1812289,-11,-8,-4,-5,-1,-2,-4,-22
1584991664.1812289,16,3,0,2,2,-3,-4,9
1584991664.1976597,-5,0,4,0,3,2,1,-1
1584991664.1976597,-5,-1,0,-2,1,1,0,1
1584991664.1990385,-5,-2,-1,-5,-6,2,-1,-2
1584991664.1990385,4,1,-1,-1,-3,-4,-1,-1
1584991664.2112849,31,2,-1,0,-1,-2,1,5
1584991664.2112849,-33,-2,0,2,-2,0,3,2
1584991664.2202256,-66,-5,0,0,1,-2,-4,-24
1584991664.2202256,8,-8,-4,1,-6,0,-2,-11
1584991664.234552,18,1,-3,-2,-1,1,2,8
1584991664.234552,1,7,5,2,-2,4,0,-6
1584991664.2412887,15,2,3,0,-2,0,0,-7
1584991664.2412887,4,-4,-1,0,1,-3,-3,1
1584991664.257007,4,3,0,1,-2,0,1,0
1584991664.257007,4,-3,3,-1,0,-3,2,1
1584991664.2638557,3,3,-1,-2,-3,-1,-1,-1
1584991664.2638557,3,4,2,-1,0,-2,2,7
1584991664.2713437,34,2,-1,-1,0,2,2,9
1584991664.2713437,-60,-6,0,2,-3,-1,-3,-18
1584991664.2801657,-4,-1,1,-2,-5,-2,-1,-7
1584991664.2801657,20,0,-2,0,1,-1,1,6
1584991664.2945695,5,-2,0,1,-1,0,-3,7
1584991664.2945695,-60,-3,-1,1,2,2,-1,-7
1584991664.3013027,17,2,-6,-3,4,-1,3,3
1584991664.3013027,3,-3,2,2,1,0,1,5
1584991664.317061,3,-1,-4,-1,1,0,-3,2
1584991664.317061,6,0,0,-2,-3,2,1,2
1584991664.3238096,5,0,-2,0,-1,-2,0,-8
1584991664.3238096,5,0,-1,1,1,-5,1,6
1584991664.3313534,-61,-8,-3,0,2,-2,-4,-21
1584991664.3313534,10,0,-1,1,0,0,0,5
1584991664.3401947,9,2,-2,1,2,0,4,7
1584991664.3401947,2,-1,-1,0,1,1,-1,5
1584991664.3545716,-13,-4,1,1,1,0,2,-1
1584991664.3545716,1,0,0,0,0,1,2,-1
1584991664.3613284,-8,-6,-1,0,4,2,0,0
1584991664.3613284,1,-2,2,-1,-2,0,-1,2
1584991664.3770678,-3,-1,-3,-2,-1,-1,-1,-1
1584991664.3770678,4,0,1,0,0,-1,3,3
1584991664.383804,30,-2,1,-3,1,-2,-1,4
1584991664.383804,-25,-1,-4,1,-2,-2,1,-4
1584991664.3913126,3,3,-2,-1,0,1,-3,1
1584991664.3913126,-2,0,-2,-2,1,4,-1,2
1584991664.4000974,5,-5,-3,-2,0,-2,3,-3
1584991664.4000974,21,0,-2,-1,0,-1,0,3
1584991664.422658,-13,2,-3,-2,1,-1,-1,-6
1584991664.422658,-2,-2,-3,-3,1,-1,-4,2
1584991664.4243608,-22,-5,-4,0,2,-3,1,-4
1584991664.4243608,23,1,1,-1,3,0,0,10
1584991664.437075,0,3,2,2,-1,1,-3,3
1584991664.437075,-3,-1,-2,-1,0,-2,2,3
1584991664.4438946,12,2,-2,-1,-3,-1,-1,4
1584991664.4438946,2,1,-4,0,-3,0,-1,2
1584991664.4601715,6,3,2,-1,-1,-2,2,1
1584991664.4601715,-38,-8,-1,0,-2,-1,-1,-4
1584991664.4618316,5,0,-1,-1,0,0,3,-1
1584991664.4618316,8,5,-5,-1,-1,-2,-1,2
1584991664.475242,-14,3,5,0,0,1,2,7
1584991664.475242,0,-10,-1,-4,0,0,-7,-13
1584991664.4889069,-44,-4,0,0,3,0,0,-6
1584991664.4889069,14,-1,0,2,-4,0,1,7
1584991664.4970205,-13,0,-3,1,0,0,-2,-8
1584991664.4970205,14,2,-3,-2,-3,-2,-2,-5
1584991664.5037806,29,4,-1,-1,-1,2,2,11
1584991664.5037806,-3,0,0,0,-2,0,-5,-3
1584991664.5205746,9,0,4,1,1,0,2,0
1584991664.5205746,-22,1,1,0,1,1,1,-1
1584991664.5262892,6,1,-2,-2,2,0,-1,2
1584991664.5262892,7,-1,1,-1,-4,-3,-1,2
1584991664.5344927,-11,0,0,-1,0,-1,-1,-1
1584991664.5344927,7,-1,-2,-1,-2,3,0,-7
1584991664.5412214,2,-1,-3,-1,-2,0,0,4
1584991664.5412214,22,0,-1,0,-1,2,3,11
1584991664.5570016,-39,-2,2,0,-1,0,-3,13
1584991664.5570016,13,-3,-3,-1,0,-2,-8,-13
1584991664.5638132,-16,10,2,-4,3,1,2,4
1584991664.5638132,-54,-7,-5,3,3,1,0,2
1584991664.580133,37,11,5,1,0,3,7,11
1584991664.580133,-33,-28,-10,-5,-6,-8,-13,-52
1584991664.5816019,42,11,3,3,1,-2,-2,1
1584991664.5816019,-68,-8,-1,0,1,1,2,5
1584991664.5945506,65,1,0,-5,-3,-3,-2,22
1584991664.5945506,-62,1,8,0,6,7,4,-9
1584991664.6013083,9,-4,-4,-4,-2,-2,-3,-1
1584991664.6013083,-83,4,2,1,3,-2,-2,-6
1584991664.6170826,33,4,2,2,-3,1,0,-10
1584991664.6170826,-25,-3,-2,0,3,0,0,-8
1584991664.6237783,-1,0,3,-1,-4,-1,2,7
1584991664.6237783,-7,-6,-6,-9,-1,-4,-6,-24
1584991664.6401467,-7,-1,-1,-1,1,0,-1,1
1584991664.6401467,-5,1,4,0,0,1,1,0
1584991664.6418204,-6,2,-2,2,-1,1,2,4
1584991664.6418204,6,-4,0,-3,-4,-3,-2,-12
1584991664.6545637,-46,-10,-6,-2,-1,0,1,-2
1584991664.6545637,-4,4,-1,1,-1,-1,2,11
1584991664.6612866,12,1,-1,-3,-2,2,2,7
1584991664.6612866,-16,-5,-2,-2,-3,-4,-2,-1
1584991664.6769936,-31,-3,1,-4,-3,0,-3,-1
1584991664.6769936,53,3,1,0,1,-1,-2,5
1584991664.6838143,-72,-5,0,0,-1,1,0,-20
1584991664.6838143,-33,6,0,2,2,0,3,1
1584991664.700594,127,-12,-11,-11,-5,-5,-5,17
1584991664.700594,-77,10,8,7,4,2,4,-11
1584991664.702032,45,-2,-6,-3,-4,0,-3,15
1584991664.702032,3,1,-1,0,0,1,1,-4
1584991664.7145655,-8,3,1,-1,1,-1,5,4
1584991664.7145655,-7,2,1,-2,2,0,-1,-1
1584991664.721303,-19,2,0,-2,0,0,-5,4
1584991664.721303,-7,0,-1,-1,-4,-1,-5,-6
1584991664.7371557,21,-8,-7,-1,-1,0,0,1
1584991664.7371557,-10,-1,2,2,-1,-1,3,-3
1584991664.7437217,3,2,-3,-1,0,0,-2,0
1584991664.7437217,-45,2,-1,1,1,1,-5,-3
1584991664.7600722,48,-6,-6,-4,-2,-3,-1,4
1584991664.7600722,-22,0,-3,1,-3,1,1,-7
1584991664.761701,-3,-9,-8,-2,1,2,6,3
1584991664.761701,13,10,1,6,7,0,4,5
1584991664.7744923,14,-17,-7,1,7,2,0,7
1584991664.7744923,-13,3,4,-1,-10,-2,-10,-3
1584991664.7812877,23,-12,-18,-5,-13,-3,-1,1
1584991664.7812877,0,47,14,9,28,17,12,2
1584991664.7969332,-32,-25,-5,4,17,1,-2,9
1584991664.7969332,8,-21,1,-17,-58,-15,-10,0
1584991664.8037708,-4,-1,-3,4,7,8,7,-35
1584991664.8037708,1,-2,-2,8,13,7,9,17
1584991664.8201382,4,-58,-15,-13,-19,-3,-9,-4
1584991664.8201382,1,49,9,1,-1,-8,1,7
1584991664.8219514,7,-3,-4,-6,-6,1,4,8
1584991664.8219514,7,-1,-1,4,9,6,-3,9
1584991664.8345442,0,1,2,4,10,3,3,-3
1584991664.8345442,0,2,3,4,7,4,4,4
1584991664.841267,0,-1,1,0,3,-1,-2,6
1584991664.841267,5,-2,4,1,0,-1,0,-2
1584991664.8570087,-27,1,-1,0,-2,1,-2,-7
1584991664.8570087,-5,5,2,-2,-4,3,1,5
1584991664.8638377,-28,6,4,1,6,4,-1,-10
1584991664.8638377,-13,3,5,-2,5,0,4,4
1584991664.8801382,-55,-5,1,38,11,1,2,-8
1584991664.8801382,85,4,0,-3,9,3,2,15
1584991664.881541,-69,-2,-5,8,15,3,-3,-36
1584991664.881541,-31,7,0,-19,-26,-7,1,15
1584991664.8937705,98,16,12,-7,2,-8,5,-29
1584991664.8937705,127,-33,-26,11,-3,-30,-12,0
1584991664.9027698,-68,2,4,13,12,14,7,-9
1584991664.9027698,66,-20,-5,-20,1,8,-11,-13
1584991664.9170423,-102,-7,2,-15,5,-12,1,-23
1584991664.9170423,-28,11,2,20,7,3,-1,14
1584991664.923786,-69,11,4,2,6,10,9,-3
1584991664.923786,-5,11,6,4,-1,-3,0,29
1584991664.9401228,16,-7,-2,-1,0,-7,-8,-42
