timestamp,emg1,emg2,emg3,emg4,emg5,emg6,emg7,emg8
1584990353.1829007,-4,1,-3,0,1,0,-1,0
1584990353.1829007,-3,-2,-1,-3,-1,-2,-1,1
1584990353.1921933,-4,-2,0,-2,-1,0,-1,-1
1584990353.1921933,0,-3,-1,1,0,0,0,0
1584990353.206461,5,-6,-5,-2,-5,0,2,-2
1584990353.206461,3,5,-1,-4,0,0,1,1
1584990353.2089727,-1,0,3,-2,-1,0,-3,2
1584990353.2089727,1,-2,1,-1,0,2,-1,0
1584990353.2294028,0,0,-2,1,4,-3,1,-1
1584990353.2294028,-2,-1,-3,-3,4,-3,-1,-1
1584990353.230885,0,-6,-3,-3,-2,2,-2,0
1584990353.230885,0,-6,-2,-5,1,-2,-1,1
1584990353.2427886,-4,0,-4,-5,1,0,-2,1
1584990353.2427886,-1,0,-2,5,3,-2,-2,1
1584990353.251463,1,-1,0,-2,0,0,-3,0
1584990353.251463,-3,-3,-1,-2,0,1,-2,-2
1584990353.2664077,-3,6,0,-1,3,-1,2,0
1584990353.2664077,1,1,-1,1,-1,0,1,-2
1584990353.267988,3,0,-1,1,1,3,-1,-2
1584990353.267988,0,-4,-4,-1,-2,-2,-2,-1
1584990353.2890427,-3,-1,0,2,-1,4,-1,0
1584990353.2890427,0,-4,1,3,-2,-2,0,-1
1584990353.2951245,2,2,0,-4,-1,-1,-4,-1
1584990353.2951245,-2,-5,-1,-2,1,0,-1,-1
1584990353.302652,-2,1,1,-2,-3,2,-1,-1
1584990353.302652,2,0,-2,-3,-6,1,-1,0
1584990353.3115213,0,0,3,1,0,-2,-1,0
1584990353.3115213,-3,-1,0,-2,-1,-2,0,0
1584990353.326528,-1,3,-1,-2,-1,-2,1,1
1584990353.326528,0,1,0,2,-1,-4,-3,1
1584990353.328258,-2,-3,-2,-3,0,-2,1,-1
1584990353.328258,-1,2,3,-1,0,-2,-4,2
1584990353.3491035,2,0,-5,-1,1,0,1,-1
1584990353.3491035,-1,-1,-5,0,-4,-3,0,-2
1584990353.3504405,3,5,8,3,2,3,1,2
1584990353.3504405,1,-1,-3,1,2,-1,-3,1
1584990353.3626962,3,5,-2,1,-1,-2,-1,-1
1584990353.3626962,-3,-5,-4,-3,2,-1,-2,0
1584990353.372201,1,1,-2,-3,1,2,0,0
1584990353.372201,-4,1,-2,0,1,2,1,-1
1584990353.3857832,-5,2,0,-1,-1,1,0,-2
1584990353.3857832,7,1,-1,-1,-4,3,-1,2
1584990353.386682,-4,-1,-1,3,-2,-3,-1,-4
1584990353.386682,-6,-4,-2,-1,0,3,0,-8
1584990353.40826,-2,-3,-1,-2,-2,1,-2,1
1584990353.40826,4,1,1,1,-3,-1,0,3
1584990353.409527,0,0,2,0,-2,0,-4,-1
1584990353.409527,-1,-1,0,-1,-1,1,-2,1
1584990353.4314766,1,1,-2,-1,0,-2,-3,-5
1584990353.4314766,-5,1,-3,2,-3,-5,2,2
1584990353.4323862,5,-2,1,-3,-1,-1,-4,-2
1584990353.4323862,-13,2,2,3,1,-1,-2,-4
1584990353.4457974,3,2,-1,-1,-2,1,2,0
1584990353.4457974,2,2,1,-1,0,-1,-3,1
1584990353.447214,0,-5,-2,0,-1,3,2,1
1584990353.447214,2,-4,-1,-1,-1,3,1,2
1584990353.4682877,2,4,2,-1,-2,-2,3,-1
1584990353.4682877,-2,2,-4,0,-5,-1,0,0
1584990353.4696827,-1,1,1,0,0,-1,-3,-1
1584990353.4696827,-2,-4,0,-2,0,-1,-2,-1
1584990353.4989874,0,-2,-1,1,-2,-1,-2,1
1584990353.4989874,0,-1,-2,-2,0,1,3,2
1584990353.4998908,-5,-3,-2,-2,-1,2,-4,-3
1584990353.4998908,2,0,2,-1,-1,0,1,1
1584990353.5064452,14,1,-1,-2,-1,0,2,2
1584990353.5064452,5,-1,-1,1,1,-1,2,2
1584990353.5075097,-3,5,3,4,3,-5,-4,-1
1584990353.5075097,-42,-7,-2,-4,-1,1,-1,-15
1584990353.528309,-2,6,3,0,-2,-2,-1,1
1584990353.528309,13,6,1,-1,0,0,3,3
1584990353.5300362,20,3,4,4,3,1,3,5
1584990353.5300362,15,-1,-5,-1,-5,3,1,5
1584990353.5514877,-42,-9,-6,-4,-5,-1,-3,-12
1584990353.5514877,-21,-10,-6,-3,0,-4,-4,-4
1584990353.5523915,2,2,-1,2,0,0,0,8
1584990353.5523915,0,0,-1,-4,3,1,-4,-15
1584990353.565784,15,7,4,6,3,1,-4,2
1584990353.565784,5,1,-1,-3,1,2,2,10
1584990353.5666509,-9,-4,1,-2,1,-2,-2,5
1584990353.5666509,-39,-8,-1,0,0,-6,-2,-23
1584990353.58828,-25,-12,-7,-6,-1,-4,-5,-12
1584990353.58828,38,8,3,1,0,-2,1,14
1584990353.5895975,-12,3,2,2,1,0,0,-3
1584990353.5895975,11,-1,0,0,-2,-4,-1,6
1584990353.611459,11,1,0,2,1,3,1,3
1584990353.611459,6,4,1,6,4,2,-2,3
1584990353.6128237,-3,-1,2,0,-1,2,-1,-2
1584990353.6128237,1,-6,-3,-1,0,0,-1,0
1584990353.6257725,-1,-1,-2,0,-2,-1,0,2
1584990353.6257725,-5,0,0,-1,-1,-1,-1,-13
1584990353.6271656,0,-1,-1,2,1,4,3,8
1584990353.6271656,-2,-6,2,-3,-3,-2,-2,-5
1584990353.648286,-7,0,-2,0,2,-3,-2,-7
1584990353.648286,9,0,-2,-1,0,-3,-2,-6
1584990353.6495974,1,1,3,3,3,2,3,6
1584990353.6495974,19,1,-4,-4,-1,2,3,34
1584990353.6714818,1,-1,-2,-1,-1,0,-6,-42
1584990353.6714818,-64,-7,-1,-2,-3,-1,-6,-43
1584990353.672398,21,0,0,2,0,2,1,11
1584990353.672398,53,3,2,-1,-2,0,3,15
1584990353.6862226,-57,-3,-5,-5,-5,-4,-3,3
1584990353.6862226,-5,-7,-4,-2,-3,-2,-3,3
1584990353.6871076,9,2,1,2,-1,-2,-1,-10
1584990353.6871076,6,2,1,0,2,1,-3,-9
1584990353.708272,16,6,3,-1,2,-5,0,4
1584990353.708272,-19,0,-1,-1,1,-1,2,4
1584990353.709463,-10,-13,0,0,-1,0,-2,-15
1584990353.709463,8,-2,-4,0,-3,-1,-4,-2
1584990353.731458,-2,4,-1,1,-4,-1,-1,1
1584990353.731458,-3,-1,0,0,0,0,-1,1
1584990353.7327976,23,3,3,-2,1,1,1,14
1584990353.7327976,-70,-15,-3,-5,0,-3,-5,-23
1584990353.7457573,15,0,-2,0,-6,0,-3,-19
1584990353.7457573,0,4,3,-1,2,1,5,16
1584990353.7470174,18,6,3,2,5,0,3,13
1584990353.7470174,8,-4,-5,-1,0,0,-5,-10
1584990353.776484,-1,-9,-8,-4,3,-6,-3,-2
1584990353.776484,2,5,1,1,-5,1,2,9
1584990353.7777839,8,-1,2,4,-1,0,-2,-8
1584990353.7777839,13,5,0,-2,1,0,3,2
1584990353.7908354,21,10,1,1,0,1,5,23
1584990353.7908354,-60,-20,-8,0,-1,0,-6,-29
1584990353.7921247,44,-9,-7,-3,-4,-4,-7,-2
1584990353.7921247,20,5,4,0,1,-3,4,3
1584990353.8058674,29,11,3,4,0,3,4,18
1584990353.8058674,4,10,9,5,1,0,1,8
1584990353.8071592,-43,-3,0,0,3,3,5,0
1584990353.8071592,-53,-9,-2,-1,-4,-1,-7,-48
1584990353.8282404,29,0,-3,0,2,-4,-3,16
1584990353.8282404,31,4,-5,-3,-2,-2,-2,-11
1584990353.8300505,3,1,3,4,0,1,4,15
1584990353.8300505,7,4,-5,-3,-4,-1,8,10
1584990353.8507636,7,11,12,1,-1,0,-4,-28
1584990353.8507636,2,13,2,0,-4,-1,-1,11
1584990353.8516724,-19,-14,-6,-5,-4,-2,-6,-34
1584990353.8516724,-4,-3,-3,0,1,-2,-3,-8
1584990353.865749,15,9,4,0,3,2,2,13
1584990353.865749,-4,-7,0,3,3,4,2,18
1584990353.8666415,16,11,5,2,1,5,4,1
1584990353.8666415,16,-19,-6,-7,-5,-9,-10,-1
1584990353.8882499,-36,4,-1,1,-3,1,0,-16
1584990353.8882499,17,-6,-1,-4,-2,-9,-13,-26
1584990353.8894455,1,11,5,2,3,2,7,20
1584990353.8894455,25,3,3,2,1,-2,5,11
1584990353.9107149,127,-1,-6,-3,1,-3,4,15
1584990353.9107149,49,18,1,5,5,1,7,8
1584990353.9118788,-120,-38,-9,-14,-9,-12,-25,-60
1584990353.9118788,127,31,5,8,1,6,11,37
1584990353.925741,8,-9,-1,0,-1,-1,3,-40
1584990353.925741,-128,-126,-55,-20,-9,-10,-19,-77
1584990353.927032,127,24,11,-2,0,-4,5,22
1584990353.927032,-86,63,22,5,4,6,12,85
1584990353.9491146,127,24,-4,4,2,3,5,-18
1584990353.9491146,-28,-41,-17,-1,-3,-3,-7,57
1584990353.9500809,-128,-27,-22,-16,-7,-7,1,-21
1584990353.9500809,-128,-33,15,1,0,-4,-17,-50
1584990353.971348,127,20,2,1,1,2,10,93
1584990353.971348,127,49,30,22,14,19,28,-51
1584990353.9783053,-128,-60,-37,-23,-18,-19,-35,-90
1584990353.9783053,-128,85,44,28,17,23,52,127
1584990353.9863768,127,-110,-51,-29,-19,-25,-40,-51
1584990353.9863768,-20,61,35,24,17,34,72,127
1584990353.9876513,2,-35,-76,-37,-22,-34,-74,-82
1584990353.9876513,127,34,71,19,7,17,47,127
1584990354.0165954,-128,29,-27,-19,-9,-18,-33,-128
1584990354.0165954,127,127,1,15,2,1,-2,-12
1584990354.018107,9,-32,58,8,3,7,-15,75
1584990354.018107,122,95,6,4,5,8,12,83
1584990354.055398,127,-79,-20,-4,-3,0,2,-128
1584990354.055398,127,41,-94,-17,-15,-3,0,57
1584990354.0568957,-128,-50,107,-6,-14,-33,-77,31
1584990354.0568957,-41,114,2,1,7,5,17,-107
1584990354.0577838,-128,76,12,4,4,6,27,-61
1584990354.0577838,-128,-66,54,-12,-13,-26,-86,-1
1584990354.0608027,123,122,25,32,29,29,23,16
1584990354.0608027,-128,127,-3,-34,-30,-41,-83,-128
1584990354.0697718,127,-128,-11,-6,-1,-4,30,96
1584990354.0697718,77,-28,5,10,11,18,5,96
1584990354.071009,-128,32,-42,-4,-3,-5,-17,-128
1584990354.071009,87,28,-26,-13,-9,-7,19,127
1584990354.090867,-30,-128,13,-5,-7,-3,-28,-128
1584990354.090867,-128,-128,-63,-3,1,-1,30,63
1584990354.0922706,114,-74,30,0,7,-5,-20,86
1584990354.0922706,127,74,-52,-22,-14,-25,-38,-6
1584990354.1146,-18,127,72,24,7,5,37,8
1584990354.1146,127,-128,-74,-13,-5,11,7,73
1584990354.1155684,-128,-128,-18,-8,-1,0,-2,-32
1584990354.1155684,127,-121,37,18,12,17,17,43
1584990354.128932,-128,127,30,-6,-4,-7,3,-53
1584990354.128932,-11,-117,11,15,13,32,28,69
1584990354.1360083,74,-82,-62,-13,-16,-35,-21,16
1584990354.1360083,127,-12,6,-1,-4,-4,21,99
1584990354.1591933,-128,127,127,19,-1,-4,-70,-128
1584990354.1591933,-128,-91,-25,-8,-6,-10,-14,-57
1584990354.160167,-111,-128,-31,-5,-3,-2,13,25
1584990354.160167,127,127,73,8,-2,3,6,49
1584990354.1814814,20,76,28,11,11,19,31,127
1584990354.1814814,127,-24,-58,-17,-15,-9,32,127
1584990354.1827044,127,-20,15,6,8,-1,-12,85
1584990354.1827044,-128,127,91,28,18,10,23,-9
1584990354.188349,127,127,23,13,9,20,53,127
1584990354.188349,127,-127,3,-4,-1,3,-22,-95
1584990354.1894407,-86,-60,-7,-15,-17,-49,-28,-4
1584990354.1894407,127,73,44,32,26,30,45,127
1584990354.2107666,60,-70,-38,-25,-17,-23,-38,-128
1584990354.2107666,12,-128,-30,5,2,-3,-12,127
1584990354.2116556,-76,55,53,23,12,15,-1,-67
1584990354.2116556,127,-88,-20,-5,-4,8,20,93
1584990354.2353103,53,127,48,-3,-5,0,15,127
1584990354.2353103,9,-32,-24,-8,-3,-7,-33,-90
1584990354.2365456,-128,30,1,2,4,8,29,-61
1584990354.2365456,-68,-41,-27,-5,-2,4,-4,74
1584990354.2489896,-37,-128,-55,-15,-12,-20,-17,-103
1584990354.2489896,-39,-53,-9,-1,4,-3,-18,-41
1584990354.2499022,32,127,78,27,14,16,55,111
1584990354.2499022,127,6,9,8,4,9,1,-31
1584990354.2790406,15,-92,-54,-16,-10,1,24,-50
1584990354.2790406,127,108,37,16,9,-1,4,85
1584990354.280433,-128,56,27,13,11,12,3,-17
1584990354.280433,34,-55,-3,-9,-6,-9,20,-31
1584990354.293944,-13,-20,10,6,0,-1,13,61
1584990354.293944,-1,-13,-3,0,1,11,-12,-116
1584990354.2951696,127,44,28,8,4,5,21,29
1584990354.2951696,-128,113,21,3,1,7,2,-15
1584990354.308262,-63,-48,9,12,17,14,57,127
1584990354.308262,-128,-128,-53,-28,-15,-26,-52,-128
1584990354.3094466,8,70,21,5,1,4,14,86
1584990354.3094466,127,10,2,3,3,0,2,126
1584990354.3390718,-64,99,37,9,2,0,-9,-32
1584990354.3390718,31,9,5,3,-1,-6,6,-5
1584990354.3404706,-48,5,10,9,6,10,10,-24
1584990354.3404706,83,-36,-12,-6,-5,-9,-6,-69
1584990354.3450992,-28,15,2,0,-1,0,8,36
1584990354.3450992,51,-7,-10,-4,-4,0,-1,0
1584990354.3533046,-53,-12,0,-2,-1,-1,8,-30
1584990354.3533046,-32,-2,5,4,5,4,5,34
1584990354.3701131,19,-9,-14,-12,-7,-3,13,-7
1584990354.3701131,-75,-4,-2,-1,1,0,2,-53
1584990354.3715353,-51,1,2,6,8,11,14,61
1584990354.3715353,70,-11,-11,-4,-6,-7,-9,5
1584990354.3908453,127,41,-9,-17,-20,-26,-41,28
1584990354.3908453,-31,14,5,1,2,5,8,-2
1584990354.3922172,127,10,5,4,3,5,14,13
1584990354.3922172,126,20,23,10,4,5,10,78
1584990354.413939,-128,-69,-25,-12,-8,-9,-11,101
1584990354.413939,57,-12,9,-1,-2,-8,-39,-67
1584990354.4152937,16,18,6,1,2,-9,1,29
1584990354.4152937,-76,1,2,2,-1,1,4,8
1584990354.4366221,-30,0,-3,-4,0,16,0,-22
1584990354.4366221,-59,-9,-3,-4,-5,-4,5,-6
1584990354.4379869,-19,2,1,2,1,3,1,-10
1584990354.4379869,-128,-44,-18,-7,-5,-6,-12,-26
1584990354.4675674,4,3,-5,-6,-2,-7,-13,-27
1584990354.4675674,38,-8,2,3,3,0,-6,9
1584990354.4685023,-23,13,13,4,3,1,9,13
1584990354.4685023,-18,7,0,-1,-2,3,2,-6
1584990354.4812267,61,7,-4,-1,0,-1,-5,0
1584990354.4812267,23,-10,-8,8,5,6,8,15
1584990354.4820929,-128,-44,-28,-15,-8,-10,-27,-104
1584990354.4820929,10,22,29,3,-2,1,9,18
1584990354.4893646,53,12,-6,1,0,5,7,36
1584990354.4893646,-13,4,-1,0,2,2,-4,-19
1584990354.503204,49,-5,-8,-3,2,1,6,18
1584990354.503204,-14,-2,7,4,4,-1,1,14
1584990354.5121357,-128,-39,-13,-1,-2,-6,-13,-103
1584990354.5121357,17,6,-1,-2,-3,-3,-6,2
1584990354.5133426,28,1,6,3,0,-3,0,10
1584990354.5133426,-23,-11,-1,0,-2,1,0,-7
1584990354.5339336,-1,-2,-1,-2,-1,0,3,4
1584990354.5339336,-7,4,-3,-4,-3,-1,1,1
1584990354.5347793,-3,-3,-3,-3,0,2,3,2
1584990354.5347793,9,2,0,-1,1,-2,-13,4
1584990354.5494268,-52,-10,-3,2,2,-4,4,-12
1584990354.5494268,-109,6,1,-1,-4,-1,-3,-9
1584990354.5502765,2,-9,-9,-6,1,-4,-3,-1
1584990354.5502765,39,8,8,1,2,3,4,17
1584990354.5712547,-52,5,3,2,1,1,-3,-6
1584990354.5712547,96,9,4,1,-1,3,6,4
1584990354.5782254,-24,-12,-9,-8,0,-4,-2,2
1584990354.5782254,-20,5,6,4,3,1,2,6
1584990354.6014426,6,0,-1,-3,0,1,-1,-2
1584990354.6014426,-11,1,-3,-2,-4,2,4,1
1584990354.6025507,0,-4,-1,-1,3,-2,4,12
1584990354.6025507,20,3,-1,-4,-3,-4,-13,-15
1584990354.608548,-6,-4,1,1,0,2,-4,1
1584990354.608548,-5,3,4,-7,0,-2,0,4
1584990354.6100063,-1,-1,0,0,1,3,3,3
1584990354.6100063,-3,-3,-5,-3,-2,-2,1,0
1584990354.6307662,-1,-1,-4,-1,-1,-3,0,-3
1584990354.6307662,0,-2,-3,-1,2,1,-2,-1
1584990354.6316664,11,-5,-1,-1,-5,0,-11,3
1584990354.6316664,-26,-4,0,-1,0,-2,3,-11
1584990354.653919,0,1,1,-3,0,3,14,4
1584990354.653919,2,3,0,1,-3,-3,-18,-2
1584990354.6547544,5,-2,5,5,3,-5,-7,-3
1584990354.6547544,-1,-2,-2,-2,-1,-4,-6,-5
1584990354.6696286,1,-6,-7,-6,-1,2,-3,-4
1584990354.6696286,-2,2,1,4,-2,2,0,1
1584990354.6710248,-7,4,2,1,-1,0,4,0
1584990354.6710248,0,-3,0,-1,3,1,3,1
1584990354.6908174,5,3,8,4,2,1,-2,3
1584990354.6908174,0,6,-2,-7,2,3,-1,0
1584990354.692243,0,1,-4,-4,-2,-1,4,0
1584990354.692243,-2,-5,1,1,2,-1,0,-1
1584990354.7139447,-1,-1,-2,-4,0,2,0,1
1584990354.7139447,0,3,0,-2,-2,0,1,0
1584990354.7147868,-1,1,6,3,-1,0,0,0
1584990354.7147868,-2,-5,-3,3,-5,-2,-4,-3
1584990354.728293,-1,-1,-4,-3,-3,-2,2,0
1584990354.728293,1,1,-1,2,-2,-4,1,0
1584990354.729519,-1,-2,0,0,2,1,-3,-1
1584990354.729519,-7,-3,0,-3,-1,0,2,0
1584990354.7507389,-1,1,-4,-2,3,-2,3,0
1584990354.7507389,-2,1,0,1,2,3,-1,-1
1584990354.7516322,1,-2,1,0,-2,1,0,-4
1584990354.7516322,-1,-1,-3,1,-3,0,0,-1
1584990354.7739353,0,0,3,-1,-1,-2,-1,0
1584990354.7739353,1,0,1,3,1,1,1,-3
1584990354.7754424,1,-4,1,0,1,-1,-1,0
1584990354.7754424,0,-1,-2,-1,-3,4,0,3
1584990354.7882397,1,4,0,-1,2,1,-1,0
1584990354.7882397,-2,0,1,0,1,-2,-1,-2
1584990354.789376,2,-1,7,0,0,0,0,0
1584990354.789376,-2,-3,-5,-3,0,1,-1,-2
1584990354.810717,-3,3,0,1,-2,0,-3,-1
1584990354.810717,3,0,2,-1,1,2,0,-3
1584990354.811949,1,-1,2,-3,3,0,0,-2
1584990354.811949,1,1,3,-2,-1,-1,2,-1
1584990354.8339472,-2,1,1,-1,2,-1,0,0
1584990354.8339472,0,-2,1,1,0,-4,0,-1
1584990354.8348315,0,-3,-1,-3,-2,-4,0,0
1584990354.8348315,-3,-2,-6,-1,1,1,1,-1
1584990354.8482537,4,7,0,1,-3,-4,0,3
1584990354.8482537,-5,-4,-3,-1,-3,0,0,-3
1584990354.849629,0,-5,2,1,0,1,-1,0
1584990354.849629,2,-2,-9,-3,-1,-3,-2,-1
1584990354.8864348,3,12,6,3,-1,0,0,7
1584990354.8864348,1,-4,4,-1,-4,2,-2,-3
1584990354.8873732,-1,-7,-5,-1,-3,0,-4,0
1584990354.8873732,1,-2,-3,-3,1,-1,0,-3
1584990354.893931,0,-6,-4,-1,-2,0,0,-2
1584990354.893931,-3,-1,1,-4,-2,-1,2,-1
1584990354.8950956,-1,-11,-4,-1,-1,1,3,-1
1584990354.8950956,1,12,3,0,-6,-1,0,2
1584990354.9082875,-5,-3,-5,-1,-1,1,-3,-4
1584990354.9082875,2,0,4,1,-2,3,0,1
1584990354.9100304,3,-6,1,-1,-2,0,0,1
1584990354.9100304,1,1,-3,0,0,1,1,1
1584990354.9307525,-1,-1,0,1,-1,-1,1,0
1584990354.9307525,2,2,0,-1,2,3,2,0
1584990354.9321988,-5,0,2,0,1,-2,-1,-3
1584990354.9321988,4,1,0,0,1,2,0,-2
1584990354.9538875,-4,-7,-4,-2,-1,0,-2,0
1584990354.9538875,-1,1,5,6,2,-4,0,1
1584990354.9547787,-1,-2,3,-1,2,3,2,-1
1584990354.9547787,-4,-4,0,-3,1,-2,2,-1
1584990354.968228,-2,0,-5,0,-3,-1,0,2
1584990354.968228,-3,-4,-2,-4,-5,-1,0,-1
1584990354.969532,-3,-4,0,-3,1,2,1,-1
1584990354.969532,1,0,2,1,0,-2,0,-1
1584990354.9908748,-3,2,-3,1,-1,1,1,0
1584990354.9908748,-1,-2,-3,1,3,-2,-1,-3
1584990354.9923363,0,-3,-1,-4,-1,-2,1,-1
1584990354.9923363,1,-3,0,2,4,2,1,1
1584990355.013908,0,6,1,-2,-3,-1,-1,0
1584990355.013908,2,2,-1,1,1,-2,0,0
1584990355.015384,0,-2,-1,-3,-1,-4,-2,-1
1584990355.015384,-3,-4,1,-1,2,-2,2,-3
1584990355.0282383,-1,-1,-4,1,-5,1,0,0
1584990355.0282383,0,4,2,-1,0,2,-4,-3
1584990355.0293937,-3,-6,0,0,1,-1,0,1
1584990355.0293937,-1,-3,2,-2,-2,1,0,-2
1584990355.050729,-1,1,-2,1,-2,-1,0,-4
1584990355.050729,-5,-6,-3,0,1,-3,0,1
1584990355.0516372,7,11,7,4,2,1,0,-1
1584990355.0516372,3,3,0,1,-2,1,-1,-1
1584990355.0730562,2,-5,-3,1,-3,-2,-1,0
1584990355.0730562,-2,2,-1,-1,0,-1,-1,-3
1584990355.0807846,2,1,4,1,0,1,0,1
1584990355.0807846,0,-4,0,0,0,-2,1,1
1584990355.0882056,-1,-4,-5,1,-1,-2,-1,2
1584990355.0882056,0,-2,-2,-1,1,-3,0,2
1584990355.0893364,-1,-7,2,-1,-1,-1,0,-2
1584990355.0893364,3,-1,2,1,1,-1,0,0
1584990355.1189332,-1,0,-3,0,-2,1,-2,2
1584990355.1189332,0,1,0,-1,-2,-1,-3,0
1584990355.1198397,-4,-2,1,2,-3,0,0,-2
1584990355.1198397,0,3,-2,-4,-1,1,2,2
1584990355.1339548,-3,1,0,-3,0,-3,2,0
1584990355.1339548,-1,1,-1,-2,-4,1,-2,0
1584990355.1347997,1,-5,-2,-4,-3,-2,1,1
1584990355.1347997,-4,9,2,-2,-2,-1,-1,0
1584990355.1495628,2,1,-2,1,-1,1,3,3
1584990355.1495628,4,7,4,3,3,1,0,-2
1584990355.1632342,0,-6,-5,-3,-2,-1,-3,-1
1584990355.1632342,1,-5,3,2,1,2,3,0
1584990355.1709285,-1,1,0,2,1,-1,2,0
1584990355.1709285,-4,-4,-1,-2,-1,-1,2,-1
1584990355.1726146,-1,-7,-4,-2,-3,-1,0,-2
1584990355.1726146,0,-4,-3,-1,1,2,1,-3
1584990355.1937635,3,2,-1,0,-3,-2,0,-1
1584990355.1937635,-2,0,1,-1,0,-3,-2,-2
1584990355.2007518,1,-2,0,0,2,-2,1,0
1584990355.2007518,0,3,-4,-4,-1,-2,-2,0
1584990355.2090788,2,1,1,-3,-1,-2,-2,0
1584990355.2090788,-4,-2,-1,0,-2,-1,0,1
1584990355.2094429,-1,-5,0,-1,-1,0,0,-1
1584990355.2094429,-2,-2,-4,-2,0,1,-2,1
1584990355.2307024,1,0,1,2,-1,-4,1,-3
1584990355.2307024,2,-1,-3,-2,1,0,-3,1
1584990355.2315361,2,4,2,-1,1,0,1,-1
1584990355.2315361,1,4,3,1,2,-1,-1,0
1584990355.2539654,4,-3,2,1,-5,-1,1,-1
1584990355.2539654,-4,1,-3,-2,-3,-1,-1,-4
1584990355.2548974,-4,-3,0,0,-3,-1,0,1
1584990355.2548974,0,2,-1,-3,0,-2,-2,-3
1584990355.2682734,1,-1,-2,-2,0,-1,1,2
1584990355.2682734,-1,-1,2,-1,3,-1,-2,-1
1584990355.269659,-3,-6,-5,-2,1,-3,0,0
1584990355.269659,-4,-4,-7,-5,-1,2,-6,0
1584990355.290861,1,7,5,3,-1,-3,-2,-1
1584990355.290861,-6,-4,-3,-2,-3,2,-4,-1
1584990355.2921674,10,-2,-3,-2,0,0,1,6
1584990355.2921674,-8,1,5,-1,-1,0,-3,-4
1584990355.3220863,-19,-3,-4,-3,-2,-2,-4,-9
1584990355.3220863,6,-1,0,1,1,2,0,0
1584990355.3234,4,0,-1,-2,0,2,1,0
1584990355.3234,2,-2,-4,0,0,-4,-2,1
1584990355.3285093,3,3,1,2,1,-1,-2,0
1584990355.3285093,2,1,2,2,-1,-4,-4,-3
1584990355.3298955,0,-2,1,-1,3,2,-1,0
1584990355.3298955,0,2,-1,2,-2,0,-2,1
1584990355.3507354,0,0,-1,3,2,-3,0,1
1584990355.3507354,-2,-1,-1,-3,-1,0,2,-1
1584990355.351664,0,-4,1,1,-2,0,-3,2
1584990355.351664,1,3,-2,-1,-3,1,0,0
1584990355.3738992,-2,-3,3,3,1,-1,-3,-3
1584990355.3738992,-1,-3,-2,-1,-3,1,0,-2
1584990355.3751361,-3,2,0,2,-2,1,2,-1
1584990355.3751361,0,1,0,2,-2,-3,0,-2
1584990355.3964193,-2,0,-1,-3,-2,0,-2,-1
1584990355.3964193,3,-1,-5,-4,2,0,0,0
1584990355.3977244,-4,4,1,2,-4,1,-1,2
1584990355.3977244,1,-3,1,2,0,-4,1,1
1584990355.4107354,-3,3,1,-4,-3,-3,2,-3
1584990355.4107354,1,3,-1,2,0,0,0,0
1584990355.4119785,5,-1,2,-2,1,0,2,3
1584990355.4119785,11,-2,-1,3,-1,-2,-2,-2
1584990355.4419055,-33,-5,-2,-3,-1,-1,-5,0
1584990355.4419055,6,0,0,0,1,2,2,0
1584990355.4436,3,-4,0,-4,0,3,2,4
1584990355.4436,6,7,3,1,0,1,-3,2
1584990355.4565504,1,0,-1,0,0,0,-3,2
1584990355.4565504,1,1,-1,0,0,-3,-2,1
1584990355.458065,2,-2,3,0,0,1,-2,-1
1584990355.458065,4,0,-2,0,1,0,0,2
1584990355.4707515,2,2,-4,3,1,-6,0,-2
1584990355.4707515,-8,-3,-4,-1,-2,-5,-3,-3
1584990355.472063,-8,1,3,1,-2,0,-2,-4
1584990355.472063,1,-1,1,0,0,-2,0,-2
1584990355.493958,2,7,2,5,-2,-4,3,-2
1584990355.493958,2,-7,-4,0,-1,2,-1,-5
1584990355.4955719,13,-4,0,-1,-2,-1,1,6
1584990355.4955719,-21,-1,2,1,2,-1,-3,-5
1584990355.5076206,-9,4,3,-2,0,-1,-2,-3
1584990355.5076206,16,0,1,2,1,-2,-4,1
1584990355.5158541,-25,-6,-5,-3,-1,-3,-1,-9
1584990355.5158541,-4,-3,-4,1,-3,-4,2,0
1584990355.530732,8,3,-2,1,-2,-2,-1,5
1584990355.530732,0,-7,0,-1,-5,-1,-4,-5
1584990355.5320609,-25,-1,0,1,-2,-1,-3,-5
1584990355.5320609,6,1,-1,1,-3,1,0,1
1584990355.5538976,9,4,-2,-3,0,1,2,2
1584990355.5538976,6,1,1,-1,1,0,-2,-2
1584990355.5547655,-1,-2,-2,1,0,-1,0,0
1584990355.5547655,3,2,-2,0,-2,-1,-2,-2
1584990355.5764706,-2,-1,-3,-1,2,-3,1,-2
1584990355.5764706,-1,-2,0,-3,1,-2,-4,-1
1584990355.5776668,0,-2,2,1,-2,1,0,-2
1584990355.5776668,-3,0,-1,-2,1,0,4,-3
1584990355.59091,-2,1,-2,0,1,1,-1,1
1584990355.59091,-3,-5,-2,1,-4,-1,2,2
1584990355.5922394,0,-5,-4,-4,0,-1,-1,-1
1584990355.5922394,0,4,-2,0,-2,-1,0,-2
1584990355.6138964,-2,6,2,2,-1,-2,-1,-1
1584990355.6138964,-2,0,-3,1,-1,2,-1,-1
1584990355.6152942,-4,-8,0,1,1,-2,-2,0
1584990355.6152942,-1,0,-2,1,0,0,-1,-3
1584990355.6365554,-2,0,-4,-1,2,0,2,2
1584990355.6365554,3,-3,-4,-3,-4,-2,1,-4
1584990355.6380103,-5,-1,5,-2,-2,-2,-3,-2
1584990355.6380103,4,2,-6,0,-1,3,-2,2
1584990355.650747,7,3,-4,1,-1,-2,-2,-3
1584990355.650747,-6,-3,0,-3,1,1,-2,-9
1584990355.6519716,8,-1,4,2,0,0,-1,3
1584990355.6519716,18,-1,-4,0,1,1,4,8
1584990355.6811967,-62,-1,1,2,-1,-3,-1,-17
1584990355.6811967,2,-2,3,0,-1,3,0,1
1584990355.682165,11,4,-1,0,-3,0,1,9
1584990355.682165,11,3,2,1,0,1,1,5
1584990355.6964529,-60,-14,-3,-2,-3,-2,-6,-28
1584990355.6964529,9,-3,-1,1,-1,-3,-5,11
1584990355.6977503,73,6,5,4,1,-2,2,19
1584990355.6977503,12,3,0,1,-3,-1,1,-5
1584990355.710487,54,10,4,-1,1,1,7,35
1584990355.710487,-59,0,5,4,6,3,4,-7
1584990355.7182574,-17,-20,-11,-3,1,-2,-8,-15
1584990355.7182574,31,-2,-7,-7,-5,-5,1,13
1584990355.7339218,31,12,1,-4,-2,0,4,24
1584990355.7339218,-12,-1,3,5,3,7,9,8
1584990355.735279,-27,-19,-2,-1,-1,-3,-15,-40
1584990355.735279,26,5,-6,-3,-4,-4,0,40
1584990355.7565749,7,3,0,1,0,-1,0,-10
1584990355.7565749,1,-1,-1,-4,1,3,2,5
1584990355.7579608,-1,3,3,1,-3,-1,-3,-3
1584990355.7579608,-58,7,4,2,1,4,0,9
1584990355.7708914,-15,-12,-6,-1,-5,-2,-3,-9
1584990355.7708914,20,-7,-7,-6,-3,0,0,9
1584990355.772214,-10,3,3,-1,1,-1,0,-18
1584990355.772214,11,4,2,0,0,1,6,14
1584990355.8013756,-16,0,3,0,1,-2,-1,-8
1584990355.8013756,-11,-14,-6,-3,-3,-4,-8,-10
1584990355.802368,53,14,4,5,-1,0,6,23
1584990355.802368,-18,10,5,1,1,-1,1,-12
1584990355.8163948,22,-28,-14,-10,-9,-13,-19,-42
1584990355.8163948,27,9,1,0,0,2,6,20
1584990355.8171766,7,8,4,1,2,1,3,12
1584990355.8171766,-51,-7,-6,-3,-1,1,0,2
1584990355.8307395,7,1,2,-3,0,3,-6,-19
1584990355.8307395,-4,5,8,4,3,-2,4,17
1584990355.8320103,-59,-26,-11,-8,-3,-6,-7,-26
1584990355.8320103,-81,-6,-3,2,-2,-4,-5,-26
1584990355.8538737,-1,10,4,1,-4,0,-5,11
1584990355.8538737,67,8,-4,3,-1,4,15,56
1584990355.8547406,11,-24,-9,-6,-5,-8,-11,-61
1584990355.8547406,15,0,2,-6,-6,-7,-6,7
1584990355.876441,21,1,-4,-13,1,0,2,6
1584990355.876441,54,6,-1,3,2,-10,4,27
1584990355.8780787,5,14,16,8,5,3,2,-18
1584990355.8780787,37,31,10,6,2,5,7,58
1584990355.8913133,15,-12,-7,-3,-7,-5,-6,-15
1584990355.8913133,-46,-53,-27,-13,-10,-13,-26,-80
1584990355.8927696,43,10,3,1,-1,-3,-6,-9
1584990355.8927696,11,15,3,3,4,5,9,31
1584990355.9145296,12,24,16,9,7,7,9,16
1584990355.9145296,-88,17,6,3,2,6,5,-12
1584990355.9154496,126,-46,-24,-19,-7,-11,-20,-27
1584990355.9154496,-19,41,21,10,10,16,9,21
1584990355.936636,-128,-38,-13,-9,-1,-6,7,55
1584990355.936636,127,-11,-9,-5,-5,-5,-11,-72
1584990355.9381773,98,21,2,6,3,3,-8,-33
1584990355.9381773,-128,-13,-8,-1,3,-4,5,21
1584990355.950774,28,8,14,2,-6,23,1,-7
1584990355.950774,53,29,0,0,0,4,7,98
1584990355.9520874,-47,-33,-8,-6,-6,-32,-33,-128
1584990355.9520874,19,22,9,9,6,18,11,38
1584990355.973218,122,23,9,8,8,-5,34,32
1584990355.973218,127,-7,-19,-8,-10,-27,-29,-52
1584990355.9745574,-128,-9,6,-2,-8,-18,-42,-95
1584990355.9745574,-15,80,35,25,24,41,63,110
1584990355.9968977,127,-25,-17,-12,-8,-41,-35,-44
1584990355.9968977,-128,33,21,7,9,26,-4,-58
1584990355.9982412,127,0,-8,-4,-9,-52,1,37
1584990355.9982412,15,-5,7,4,-2,39,-7,81
1584990356.0119824,127,17,4,6,12,27,21,-36
1584990356.0119824,-128,-41,-18,-6,4,37,16,23
1584990356.013354,-128,-91,-29,-24,-27,-75,-120,-128
1584990356.013354,-128,24,16,4,3,-8,-2,73
1584990356.033213,-128,3,6,7,7,6,15,19
1584990356.033213,-128,47,25,10,12,16,38,-79
1584990356.0340288,-128,-105,-38,-22,-18,-36,-71,-128
1584990356.0340288,127,27,-17,-4,-10,-4,28,127
1584990356.0565004,-128,-78,-31,-33,-24,-27,-60,-128
1584990356.0565004,-86,90,65,37,24,32,68,127
1584990356.0579119,-4,-100,-58,-34,-25,-46,-68,-128
1584990356.0579119,127,59,14,14,10,30,38,114
1584990356.070773,-128,-119,-49,-26,-21,-28,-44,-128
1584990356.070773,53,48,25,11,7,13,22,67
1584990356.071691,-128,-39,4,-3,1,-3,-26,-128
1584990356.071691,-81,-9,-13,-2,-1,17,12,-88
1584990356.0931845,-27,12,-30,-21,-14,-44,-40,30
1584990356.0931845,7,29,24,18,13,41,36,86
1584990356.0940912,112,-19,-8,-4,-7,-6,-32,-128
1584990356.0940912,69,20,4,1,-1,-7,2,71
1584990356.1164281,-26,25,40,24,19,17,26,82
1584990356.1164281,-128,-15,4,-1,2,18,-1,-2
1584990356.117836,15,20,16,8,7,-8,15,2
1584990356.117836,-110,13,39,19,18,52,56,127
1584990356.1307425,-128,-51,-35,-24,-15,-69,-52,-90
1584990356.1307425,6,1,-15,-8,3,49,28,105
1584990356.132443,-7,43,17,4,2,0,23,121
1584990356.132443,127,17,-6,-5,-6,-25,-3,-96
1584990356.1538498,1,-3,0,-3,-5,-6,-28,-36
1584990356.1538498,-128,-64,-20,-12,-4,2,16,-6
1584990356.1548038,-128,-39,-11,-8,-6,-41,-45,-110
1584990356.1548038,-31,-1,6,3,4,0,4,-16
1584990356.1764925,-1,-23,-16,-9,-5,2,-17,-108
1584990356.1764925,127,2,-8,-3,-8,-9,10,127
1584990356.1778636,57,-40,-24,-12,-11,-7,-12,-104
1584990356.1778636,-59,37,23,16,8,24,41,127
1584990356.1908593,-128,-74,-37,-27,-19,-25,-36,-94
1584990356.1908593,-38,-2,-10,-5,-2,3,14,-9
1584990356.192158,-51,2,5,-1,-2,-2,12,-47
1584990356.192158,-35,24,15,8,3,4,14,127
1584990356.2132208,-128,-36,-19,-12,-3,2,-40,-128
1584990356.2132208,100,-7,9,2,3,-17,26,-93
1584990356.2145407,-128,-48,-11,-3,5,20,-11,-8
1584990356.2145407,34,25,14,3,-1,-4,-11,-113
1584990356.2364006,127,21,-12,14,13,34,48,103
1584990356.2364006,-128,-54,25,-5,-7,-20,-51,-128
1584990356.2372718,-10,24,6,1,0,5,19,82
1584990356.2372718,-7,64,45,26,20,34,51,95
1584990356.2507384,-128,-8,-25,-6,-6,-3,-13,59
1584990356.2507384,127,28,-4,-2,0,-31,11,70
1584990356.252063,-95,-38,3,6,2,-3,18,61
1584990356.252063,125,4,-17,-5,-4,-1,-7,38
1584990356.27505,127,-64,-27,-14,-12,-11,-7,32
1584990356.27505,58,-1,-1,1,-1,1,5,75
1584990356.2764745,-2,0,3,5,2,-1,-8,65
1584990356.2764745,-15,26,11,4,4,-15,-6,-44
1584990356.296412,47,6,0,-2,-1,19,3,-64
1584990356.296412,-121,-17,-4,-3,-3,-14,2,-79
1584990356.2977188,-128,-88,-30,-24,-21,-38,-61,-59
1584990356.2977188,127,41,-5,1,-1,4,12,43
1584990356.3107362,127,40,22,11,12,16,23,115
1584990356.3107362,-128,15,20,10,12,33,46,82
1584990356.3120239,-128,-47,-30,-25,-20,-46,-43,-128
1584990356.3120239,6,25,14,11,5,-1,-6,25
1584990356.3338861,127,29,-5,-7,-5,-2,3,58
1584990356.3338861,-37,-20,-13,-13,-13,-8,-8,-12
1584990356.3353055,21,1,4,2,1,6,11,28
1584990356.3353055,113,8,0,-2,-1,1,1,-20
1584990356.3565886,82,7,-5,-1,-1,-16,1,13
1584990356.3565886,47,28,9,9,2,3,-11,17
1584990356.358099,15,-11,-6,-4,-5,-6,3,55
1584990356.358099,-128,35,25,12,14,14,24,64
1584990356.3707302,127,24,-17,-7,-8,-6,-2,90
1584990356.3707302,51,10,-11,-4,-3,-6,-13,1
1584990356.3716087,127,-5,-3,0,-5,-4,-12,8
1584990356.3716087,14,4,0,3,1,-7,11,11
1584990356.3931677,-47,-12,-2,-3,-4,14,-9,-58
1584990356.3931677,-47,-7,0,2,2,-1,3,20
1584990356.3945475,2,-1,2,1,0,1,-8,-27
1584990356.3945475,-3,-10,-4,-2,1,-2,-2,-7
1584990356.4163866,-57,4,6,1,1,4,17,8
1584990356.4163866,-128,-17,-7,-9,-10,-7,-16,-6
1584990356.4177806,-6,0,7,3,0,-2,-3,-28
1584990356.4177806,-109,1,-4,2,1,0,5,7
1584990356.4300342,50,-20,-8,-8,-7,-4,-13,-78
1584990356.4300342,3,-4,2,3,1,1,1,-3
1584990356.438204,-95,-5,-10,3,1,0,-1,6
1584990356.438204,26,9,-3,0,2,3,-2,-15
1584990356.4532137,-9,11,5,-1,3,0,4,2
1584990356.4532137,3,1,0,5,3,3,2,2
1584990356.45407,-3,-1,8,3,0,3,7,9
1584990356.45407,40,-3,-12,-6,-6,-1,-1,12
1584990356.4765801,-44,-21,-4,-2,0,-5,-11,-67
1584990356.4765801,35,-2,1,2,-5,-1,-5,8
1584990356.4780228,-10,0,-3,-2,0,-2,-5,-5
1584990356.4780228,-11,0,-3,1,2,-1,0,3
1584990356.5070229,23,4,-2,6,3,2,9,16
1584990356.5070229,100,-1,-1,4,3,0,3,-5
1584990356.5079174,-78,-7,-2,-3,-1,-1,2,21
1584990356.5079174,46,16,3,1,2,-3,-3,-1
1584990356.5136673,1,6,-1,5,1,3,2,5
1584990356.5136673,3,-1,-2,-3,-2,1,0,6
1584990356.521118,-3,0,2,-1,-2,3,-1,2
1584990356.521118,27,3,-2,1,-1,-6,3,4
1584990356.5363507,-58,-3,0,-1,0,0,-4,0
1584990356.5363507,5,-3,1,0,0,-1,-3,-4
1584990356.537212,5,1,-1,4,0,1,4,2
1584990356.537212,7,1,2,0,-1,-2,5,2
1584990356.5590322,-14,-1,-4,0,-2,0,-6,-2
1584990356.5590322,19,-3,-2,-2,-2,-1,-6,1
1584990356.5604455,-17,-6,-1,-1,-1,-3,5,-4
1584990356.5604455,4,1,-1,4,2,-2,3,3
1584990356.5731008,1,11,3,4,2,0,-1,9
1584990356.5731008,0,-19,-3,1,1,0,-4,-5
1584990356.5737977,-9,-4,3,-3,1,-9,-2,-15
1584990356.5737977,3,3,-7,-5,-3,0,1,0
1584990356.5963635,-5,-4,1,4,5,9,7,6
1584990356.5963635,8,11,21,7,8,-14,3,-5
1584990356.5976818,-2,-5,-1,-4,-1,28,-2,6
1584990356.5976818,-5,0,0,-1,-3,-1,4,3
1584990356.618835,2,-10,-12,-7,-2,0,-4,5
1584990356.618835,-7,11,-3,-2,0,0,0,-17
1584990356.6201844,-1,-12,-9,-1,1,0,-3,10
1584990356.6201844,3,0,-5,3,-2,0,-3,-3
1584990356.633171,2,0,-7,-1,0,3,5,7
1584990356.633171,0,-6,-1,0,4,-1,1,-7
1584990356.634495,-2,-4,0,-3,1,-3,-12,-1
1584990356.634495,-2,1,1,1,-5,-27,1,12
1584990356.6564538,1,3,1,1,-2,1,-2,-9
1584990356.6564538,-2,0,-1,-2,-3,5,0,0
1584990356.6578424,-2,-3,-1,-3,-3,6,1,1
1584990356.6578424,2,1,0,-1,2,4,2,-1
1584990356.6795573,-6,2,-1,1,-1,3,1,1
1584990356.6795573,3,-2,-3,-2,-2,3,-1,-3
1584990356.6809196,0,-1,0,-1,1,1,4,0
1584990356.6809196,3,1,-2,-3,2,-1,3,-1
1584990356.6945484,2,-1,1,2,-2,-7,-12,-5
1584990356.6945484,-2,-6,-4,-1,-3,-8,-6,-1
1584990356.6954699,0,1,-1,2,1,-1,5,-1
1584990356.6954699,-1,1,0,0,1,3,1,2
1584990356.7163966,-1,-3,-2,0,0,-3,2,1
1584990356.7163966,3,-2,-1,0,-2,-1,3,1
1584990356.7173448,2,-1,4,0,0,1,-3,1
1584990356.7173448,1,-5,-4,-3,-2,-1,-1,-1
1584990356.7388546,-2,0,-5,1,0,2,0,-3
1584990356.7388546,-2,0,-6,-6,0,0,-1,-3
1584990356.7397614,-1,-5,-5,-6,1,0,0,-3
1584990356.7397614,0,1,4,3,-7,-3,-1,0
1584990356.7531703,0,8,12,5,-1,-1,0,2
1584990356.7531703,-1,-1,-2,0,2,-6,-1,1
1584990356.7540348,-1,-3,1,0,-1,-5,2,-1
1584990356.7540348,-3,-3,-4,-5,0,24,6,1
1584990356.7764192,-1,1,1,0,-4,2,0,0
1584990356.7764192,2,0,4,5,1,-8,-2,-1
1584990356.777755,-1,-3,1,-3,-5,0,-4,-2
1584990356.777755,-4,-2,-4,-6,-3,3,-1,-2
1584990356.7988682,1,-3,-3,-2,0,1,-2,1
1584990356.7988682,-1,2,3,0,1,-2,-2,-1
1584990356.8001397,1,0,5,2,3,0,-1,1
1584990356.8001397,-2,-2,-4,0,-3,-1,-1,-2
1584990356.8129652,0,2,-4,0,-1,2,0,0
1584990356.8129652,-4,-3,-2,-1,-2,3,1,-5
1584990356.8204765,2,-1,0,2,0,-2,3,1
1584990356.8204765,0,0,3,-3,1,0,-1,-1
1584990356.836369,1,-1,-3,-4,-6,1,1,1
1584990356.836369,-2,2,2,3,0,-2,1,2
1584990356.8377213,-1,-2,4,1,-1,3,0,-2
1584990356.8377213,-1,1,-3,-2,-1,-1,-1,-1
1584990356.8601937,1,0,2,-3,-5,0,-4,-2
1584990356.8601937,-2,-3,0,-2,1,1,1,0
1584990356.8614655,2,0,1,0,0,-2,-3,0
1584990356.8614655,0,0,2,-1,0,0,-1,0
1584990356.8731623,0,0,-1,-1,-1,-1,-1,-4
1584990356.8731623,0,1,2,0,1,-5,-2,-2
1584990356.8740544,-2,-3,-3,-2,2,-1,-1,0
1584990356.8740544,1,5,2,2,-2,-1,0,-1
1584990356.8963966,-3,3,1,0,-1,2,0,0
1584990356.8963966,-3,-4,1,-4,-1,-4,-5,-7
1584990356.8977585,-1,-6,0,0,1,0,0,0
1584990356.8977585,0,1,2,2,1,4,4,2
1584990356.9189084,1,1,3,0,-1,3,1,1
1584990356.9189084,0,-3,-3,0,-5,0,0,-2
1584990356.9202359,-1,-8,-5,-3,1,2,-1,-1
1584990356.9202359,2,1,0,0,-1,-2,-1,1
1584990356.9331574,2,3,8,3,2,-1,0,0
1584990356.9331574,-2,-3,-4,1,-4,0,-1,-2
1584990356.9344065,-2,-3,-4,0,-1,0,0,2
1584990356.9344065,2,-8,-2,1,-1,0,3,3
1584990356.9565575,-8,10,0,0,-1,-3,-4,-2
1584990356.9565575,-6,-12,-6,-3,-2,2,1,-2
1584990356.9582257,-6,-5,-1,-2,0,-2,0,-2
1584990356.9582257,0,-1,-1,-1,0,1,0,-1
1584990356.9791412,-2,-3,-2,1,-3,0,-2,0
1584990356.9791412,0,-6,-5,0,3,1,2,-2
1584990356.9804575,2,0,-1,0,-2,-3,-1,1
1584990356.9804575,0,2,3,1,0,-2,1,0
1584990356.9936485,-4,-1,-1,-2,-2,-2,-3,-3
1584990356.9936485,-2,-2,-1,-3,0,1,-4,-5
1584990356.9949567,-2,-3,-2,2,-2,-1,3,4
1584990356.9949567,-2,-1,-1,-1,-2,0,-2,0
1584990357.0163374,8,1,1,-2,1,-2,0,2
1584990357.0163374,-19,5,3,1,0,-1,-3,-2
1584990357.0177097,-2,-4,-5,-3,0,-1,1,-1
1584990357.0177097,5,-6,-4,-1,-2,1,-2,5
1584990357.0388324,12,-3,-5,-2,-3,-1,-3,-6
1584990357.0388324,-14,28,23,7,7,3,4,-4
1584990357.0397367,-3,-7,-7,0,-1,-4,-2,4
1584990357.0397367,8,2,-5,1,-1,-1,1,3
1584990357.0531683,-3,-10,-5,-1,-2,-2,-2,-1
1584990357.0531683,0,-6,-2,-2,0,-1,2,-1
1584990357.054506,0,-5,-1,-2,-2,0,-1,-2
1584990357.054506,1,7,4,2,1,1,-2,-1
1584990357.0765073,2,-1,7,2,-1,-2,0,-5
1584990357.0765073,3,-1,-1,0,1,-2,0,0
1584990357.0779777,-2,-6,-4,-6,0,-1,-1,0
1584990357.0779777,-3,0,-4,1,-1,1,-4,0
1584990357.0979352,1,2,-4,-2,-1,1,-3,0
1584990357.0979352,-4,-3,-1,-2,0,-2,0,-1
1584990357.1063387,0,1,-3,0,-2,-1,-2,0
1584990357.1063387,1,0,0,0,-3,-1,-2,-1
1584990357.1135805,0,0,-6,0,1,2,0,2
1584990357.1135805,1,2,-1,3,0,0,1,0
1584990357.121124,0,-4,2,-1,-1,-5,-5,1
1584990357.121124,-4,1,-1,-3,-4,-1,-2,-1
1584990357.1363971,1,1,-2,-1,1,-2,0,-1
1584990357.1363971,4,-1,-1,-2,-1,-3,-3,1
1584990357.1372755,-5,0,1,-1,-2,0,2,1
1584990357.1372755,-1,2,0,1,0,0,0,2
1584990357.159089,4,-3,-4,-3,-2,-1,0,-2
1584990357.159089,-4,-1,3,0,2,-1,0,0
1584990357.161185,1,-3,-4,-2,1,-1,-1,-4
1584990357.161185,8,5,0,-2,0,0,-1,4
1584990357.1731231,-3,-4,0,2,3,-3,2,-2
1584990357.1731231,-22,0,-2,0,-2,-1,1,-3
1584990357.1743202,5,-4,-1,-3,0,0,-5,-2
1584990357.1743202,2,-3,-4,0,-1,0,-1,2
1584990357.1971583,1,3,2,1,-2,-2,2,-5
1584990357.1971583,1,-5,-2,1,2,-2,0,1
1584990357.1975124,-3,9,4,-1,0,-1,0,-1
1584990357.1975124,-1,-3,-3,-5,-2,-1,-5,-1
1584990357.2188456,-4,-5,0,-2,1,0,0,0
1584990357.2188456,0,-6,-1,-2,1,3,-1,1
1584990357.2206397,-1,2,0,1,1,0,1,0
1584990357.2206397,-2,0,-4,-2,-1,0,-1,-2
1584990357.233117,-1,2,0,-2,1,-1,-4,-2
1584990357.233117,-3,-1,1,1,0,1,-2,1
1584990357.2340841,4,2,-2,1,3,-1,1,2
1584990357.2340841,3,-1,1,0,1,-5,-2,0
1584990357.2566097,-3,-5,-4,-4,-3,0,-1,1
1584990357.2566097,13,5,3,1,-4,3,-2,-1
1584990357.2582674,-12,-1,1,0,1,4,3,2
1584990357.2582674,-2,1,3,2,0,-1,-3,5
1584990357.279097,-7,0,-3,-5,-5,0,-2,-6
1584990357.279097,5,-7,-2,-2,-3,2,0,1
1584990357.280023,-5,-2,-4,0,-1,1,1,-3
1584990357.280023,1,0,1,-3,3,0,1,0
1584990357.2931602,12,9,0,1,1,-3,-1,-2
1584990357.2931602,7,-3,3,-1,0,1,-1,5
1584990357.2945182,-2,-5,-4,-6,-7,0,-2,-2
1584990357.2945182,-6,-2,2,3,-1,-2,0,0
1584990357.3163466,-3,1,0,0,6,-3,-2,-3
1584990357.3163466,-3,-3,-4,-2,2,1,1,-1
1584990357.3176959,5,-2,-1,-2,0,2,-1,-3
1584990357.3176959,-1,5,3,4,3,1,-2,-3
1584990357.338865,-1,2,-3,-2,-4,2,4,-3
1584990357.338865,-2,-5,-1,2,-1,0,-4,-3
1584990357.3397455,3,-4,-2,0,1,-4,-3,-6
1584990357.3397455,5,2,-2,-3,0,0,1,-1
1584990357.3525147,3,5,2,3,2,1,3,2
1584990357.3525147,-4,-3,2,2,0,2,1,4
1584990357.360701,7,2,-1,3,-1,-1,-1,1
1584990357.360701,-3,-4,-3,0,-1,0,-2,0
1584990357.375607,-1,-3,-4,1,1,-5,2,1
1584990357.375607,1,2,1,-5,3,-2,2,2
1584990357.3831446,2,-2,-3,-4,-3,1,-1,-1
1584990357.3831446,-3,-1,1,1,-2,-2,1,0
1584990357.398966,2,1,1,0,-2,0,0,3
1584990357.398966,-2,-3,-4,-2,-1,2,0,2
1584990357.4005208,-1,-4,-2,5,2,0,-2,-4
1584990357.4005208,2,1,-1,1,0,1,1,1
1584990357.4213579,0,-1,3,1,1,4,1,0
1584990357.4213579,1,-5,-3,-2,1,0,-2,2
1584990357.4223144,-7,0,0,-1,0,0,-2,0
1584990357.4223144,1,0,-4,-2,-5,2,0,-2
1584990357.4363272,-6,-1,2,1,-5,-5,-1,-3
1584990357.4363272,4,-3,-1,-1,0,-1,1,4
1584990357.437167,12,2,1,2,0,-2,2,2
1584990357.437167,-2,-2,3,3,-2,0,-1,-2
1584990357.459022,-16,0,1,1,1,2,-2,-4
1584990357.459022,1,-3,0,-1,-1,-2,0,-4
1584990357.4603584,4,-2,-2,-2,-1,5,2,3
1584990357.4603584,3,2,0,0,2,2,0,2
1584990357.481141,3,6,1,-3,0,-1,-3,2
1584990357.481141,1,-1,-4,-4,-3,-1,-1,3
1584990357.4821389,0,-1,7,3,2,-1,-2,-2
1584990357.4821389,-2,2,-1,1,-1,-3,-1,-1
1584990357.4964328,-1,-3,-3,-4,3,0,-1,1
1584990357.4964328,2,-1,-1,1,-1,-2,2,1
1584990357.497924,13,1,2,0,-3,1,0,5
1584990357.497924,-8,-3,-2,0,-4,-1,1,-6
1584990357.5188596,-30,0,-4,-4,-7,-1,3,-5
1584990357.5188596,5,-3,-1,-1,-1,3,-3,2
1584990357.519829,9,-2,-3,1,0,1,1,-1
1584990357.519829,1,1,0,-4,-2,-1,1,1
1584990357.541359,0,-1,-1,-1,2,1,1,1
1584990357.541359,-3,-3,-1,0,0,1,1,1
1584990357.542356,-2,-5,-3,-2,1,2,-2,1
1584990357.542356,-5,2,-1,-4,-5,-1,0,0
1584990357.5563242,8,3,-4,1,0,1,-1,1
1584990357.5563242,9,-2,4,1,2,2,1,5
1584990357.5577369,-47,-7,-5,-4,-1,-1,-6,-18
1584990357.5577369,3,0,-2,-1,-2,1,0,-5
1584990357.593871,17,3,2,1,0,3,1,5
1584990357.593871,9,2,1,1,-1,0,1,-1
1584990357.5957844,3,-4,-2,-1,1,-1,1,2
1584990357.5957844,3,0,1,1,1,-3,1,1
1584990357.601307,0,-2,-1,1,1,-2,-1,3
1584990357.601307,-7,-2,-1,-2,-3,-3,-3,-9
1584990357.6027474,-2,-7,-5,-3,-1,0,0,0
1584990357.6027474,12,9,-1,3,2,-2,-1,1
1584990357.6163857,-28,-8,5,-1,2,-2,-3,-5
1584990357.6163857,4,1,2,3,0,0,3,2
1584990357.6181169,5,-2,-2,-1,-3,2,1,5
1584990357.6181169,2,3,-2,-3,-1,-3,-2,-3
1584990357.6388633,-9,-4,-3,-3,0,1,-6,-5
1584990357.6388633,8,0,2,-1,-4,1,-3,-8
1584990357.640269,1,-3,-5,-3,-3,-2,19,4
1584990357.640269,-11,2,-5,0,-3,-3,-26,-4
1584990357.6613836,21,1,1,-1,-3,1,10,-5
1584990357.6613836,-5,10,-3,-1,0,0,-5,6
1584990357.6629322,35,-9,-2,-1,2,0,-5,-5
1584990357.6629322,-1,10,3,2,1,1,-4,6
1584990357.676508,-24,-7,2,-1,-2,0,3,1
1584990357.676508,14,0,-2,2,-1,-1,0,-10
1584990357.6782856,-16,-5,-1,0,-3,0,1,-4
1584990357.6782856,11,3,-2,4,-2,-3,-1,7
1584990357.6990576,3,-3,-7,-5,3,1,3,4
1584990357.6990576,3,-6,-1,1,0,1,1,5
1584990357.7008817,24,15,4,1,-1,-2,1,7
1584990357.7008817,-17,-13,-4,-1,-2,-4,0,-10
1584990357.722076,-12,8,2,2,-2,2,-2,18
1584990357.722076,-30,-19,-6,-9,-3,-5,-8,-13
1584990357.7235775,9,-4,-2,-2,2,-3,-4,-28
1584990357.7235775,15,7,2,1,-2,-1,-1,11
1584990357.736358,-30,-15,-9,-8,-1,-2,-1,-4
1584990357.736358,-1,2,-2,-2,-3,2,0,6
1584990357.737789,-7,6,3,2,2,1,-3,-14
1584990357.737789,13,7,1,2,3,1,1,7
1584990357.759097,10,-5,4,3,1,-2,0,-1
1584990357.759097,24,-3,-2,-2,-2,-1,-4,6
1584990357.7609951,-68,-8,-1,-2,0,-3,0,-10
1584990357.7609951,27,-2,-3,-4,-3,0,-2,5
1584990357.781784,69,23,3,-3,-1,4,10,34
1584990357.781784,-70,10,15,10,6,6,9,21
1584990357.7874806,29,-31,-12,-7,-6,-4,-19,-44
1584990357.7874806,24,-7,-11,-10,-9,-5,-8,-17
1584990357.7950294,3,0,-1,-3,2,3,5,16
1584990357.7950294,34,6,-1,2,3,2,5,30
1584990357.8038678,4,38,21,8,5,2,13,39
1584990357.8038678,5,-22,3,3,0,-4,-6,-38
1584990357.8188765,-46,-16,-11,-12,-11,-12,-21,-19
1584990357.8188765,-19,0,-4,1,-1,3,7,10
1584990357.8205094,23,-1,-2,5,-1,-3,-4,-28
1584990357.8205094,-16,-8,1,1,1,2,-3,1
1584990357.8413796,6,-2,-2,-4,0,0,-2,0
1584990357.8413796,48,0,2,-2,4,6,10,22
1584990357.8428698,-11,5,-1,6,6,4,4,17
1584990357.8428698,-8,11,14,2,7,4,0,18
1584990357.8550446,-46,-23,-9,-7,-5,-4,-11,-53
1584990357.8550446,46,9,-6,-13,9,5,0,-8
1584990357.863873,44,4,17,12,15,5,11,58
1584990357.863873,28,-1,-5,4,-1,1,-2,-77
1584990357.8791277,-72,-21,-20,-32,-4,-12,-21,-29
1584990357.8791277,22,-1,0,8,3,3,-2,-36
1584990357.8805304,26,14,4,2,3,5,11,54
1584990357.8805304,83,23,16,23,7,11,20,102
1584990357.9013898,-128,-77,-31,-21,-17,-21,-38,-128
1584990357.9013898,50,41,5,2,9,0,-15,98
1584990357.903072,-97,-46,-9,3,2,10,17,-40
1584990357.903072,83,14,-8,1,-8,-13,3,-72
1584990357.9150138,-38,1,4,5,2,12,7,12
1584990357.9150138,-9,6,10,1,-3,8,12,44
1584990357.9238524,-20,9,11,-6,-6,-2,-3,-4
1584990357.9238524,62,-4,-1,-6,1,-6,-43,28
1584990357.9463563,-102,-10,-2,9,6,1,-11,-13
1584990357.9463563,17,1,-12,-14,-1,-11,-3,-67
1584990357.948165,17,11,9,8,8,5,7,4
1584990357.948165,-4,0,5,5,1,6,2,25
1584990357.9613724,-50,9,8,3,9,12,8,-16
1584990357.9613724,79,4,2,-1,-6,-2,-3,19
1584990357.9630754,-92,-51,-21,-8,-23,-18,-29,-86
1584990357.9630754,83,30,9,12,2,13,18,-51
1584990357.9749596,127,26,4,28,-5,-8,1,7
1584990357.9749596,23,-10,-2,-26,4,2,24,127
1584990357.9838946,127,57,23,35,18,6,-25,0
1584990357.9838946,-128,-63,-22,-32,-7,10,16,16
1584990358.0001874,127,-27,-25,-13,-18,-23,-54,-104
1584990358.0001874,-128,42,28,-4,18,16,35,90
1584990358.001974,127,-44,-29,31,6,-5,-43,-20
1584990358.001974,-8,3,-1,-12,-2,-12,-20,-40
1584990358.0213425,-128,18,25,19,10,8,14,50
1584990358.0213425,-26,6,-1,3,-5,4,47,74
1584990358.0227664,127,11,-38,-96,-22,-22,-28,-52
1584990358.0227664,-128,11,49,-25,12,2,24,36
1584990358.0350144,127,-41,-46,5,-7,-46,-76,-128
1584990358.0350144,-128,-2,26,9,2,2,-15,-72
1584990358.0438542,127,55,2,-20,-19,19,11,55
1584990358.0438542,-128,-51,-5,19,-11,-74,-26,-128
1584990358.0588713,-128,-39,4,15,10,59,84,108
1584990358.0588713,127,-1,-57,-29,-15,-56,21,127
1584990358.0602627,-128,2,81,-10,-11,-16,-20,-128
1584990358.0602627,127,29,-23,82,5,-4,-8,127
1584990358.0810702,-49,-34,-42,-24,-7,17,-37,-128
1584990358.0810702,35,15,-7,43,23,46,3,63
1584990358.0874383,-128,-2,18,-23,-14,-57,30,127
1584990358.0874383,-128,-128,-128,-83,-47,-51,-57,-128
1584990358.0948927,86,52,73,30,15,-25,23,113
1584990358.0948927,-30,50,-1,17,17,48,63,127
1584990358.1038575,-26,-64,-16,-96,-57,-62,-62,-128
1584990358.1038575,-128,58,41,62,68,10,29,110
1584990358.118803,-128,-2,-16,-1,38,41,4,-9
1584990358.118803,-128,-36,-10,45,11,33,-47,-16
1584990358.12059,10,-43,1,25,-7,9,9,-25
1584990358.12059,-40,91,37,12,-125,-17,5,-72
1584990358.1412938,48,-1,-38,-41,-52,-22,-81,-48
1584990358.1412938,14,-128,44,9,127,39,34,-39
1584990358.1427765,-128,19,-28,4,-36,10,42,-76
1584990358.1427765,99,-87,-19,-14,-54,-27,-40,74
1584990358.1549916,127,66,93,3,-31,-12,-18,-51
1584990358.1549916,127,-28,-13,-21,-37,-18,-47,-70
1584990358.170011,100,94,33,22,-15,-1,36,45
1584990358.170011,-128,-128,21,18,25,47,29,-53
1584990358.19287,69,56,-15,4,-24,-48,-49,-64
1584990358.19287,73,0,1,5,8,-21,28,127
1584990358.2033765,127,89,55,29,90,87,42,127
1584990358.2033765,-71,-73,-41,9,-128,-51,-7,-55
1584990358.2046144,-43,-50,-8,7,37,7,-8,-49
1584990358.2046144,55,-128,-18,24,127,51,25,97
1584990358.215841,-75,77,12,-6,-51,-20,-35,-128
1584990358.215841,90,-128,-48,-5,-41,8,29,-13
1584990358.2171578,46,90,84,49,-1,23,50,89
1584990358.2171578,10,127,66,5,-23,-23,-47,-128
1584990358.2238548,-118,-39,-45,-3,-16,-38,-25,-11
1584990358.2238548,-40,1,-9,-9,-3,20,-21,-46
1584990358.2395144,-64,119,71,36,18,6,2,16
1584990358.2395144,-128,-116,-28,8,-12,-2,-4,-84
1584990358.245096,127,-59,1,13,-37,-30,-54,-37
1584990358.245096,-112,-33,3,28,35,-1,6,-29
1584990358.2613344,112,38,31,62,19,6,28,127
1584990358.2613344,-64,-1,-5,0,0,-16,12,-49
1584990358.2628434,-15,-1,1,12,0,66,8,-21
1584990358.2628434,-117,-7,28,27,102,12,1,9
1584990358.2749894,-78,-29,-25,-20,-18,33,18,15
1584990358.2749894,-128,-62,8,11,-4,19,17,-37
1584990358.2838452,76,-16,-24,-18,-1,-32,-17,-1
1584990358.2838452,127,117,99,38,-7,8,29,32
1584990358.306377,-35,39,-21,-24,3,5,-3,21
1584990358.306377,-33,-52,-17,-19,-2,13,20,63
1584990358.3077831,-22,-2,2,10,-7,-8,-13,-65
1584990358.3077831,105,30,-24,-27,-21,-7,16,-21
1584990358.3213577,-128,-55,-3,-9,1,6,-53,-27
1584990358.3213577,127,-128,-34,19,-5,-8,-9,-42
1584990358.322729,95,8,30,-5,-12,-4,-17,30
1584990358.322729,-29,31,-3,7,5,1,-2,24
1584990358.3349931,118,12,6,11,8,33,16,61
1584990358.3349931,-104,-19,-3,7,5,-1,20,-61
1584990358.3438523,6,-1,3,1,3,6,17,107
1584990358.3438523,-104,-25,-40,-7,-1,-20,28,107
1584990358.3588276,-101,-6,-3,-3,-17,59,-33,-47
1584990358.3588276,108,27,20,2,42,43,30,74
1584990358.3602161,-88,-3,-22,-20,-22,-18,-14,-87
1584990358.3602161,48,18,41,15,2,-9,3,27
1584990358.3813527,-13,-2,-1,3,4,1,10,8
1584990358.3813527,13,-26,-11,-24,-4,28,-17,24
1584990358.3832512,127,33,5,-8,-3,3,10,-20
1584990358.3832512,9,-45,-4,0,10,22,46,127
1584990358.3949842,-104,8,-20,-12,-2,-11,-24,-37
1584990358.3949842,20,9,8,9,11,6,3,12
1584990358.4038682,58,34,6,4,8,4,-5,78
1584990358.4038682,-35,13,14,-1,-11,-7,-6,-46
1584990358.4188473,10,-2,-6,-8,3,3,11,-5
1584990358.4188473,5,-4,7,7,2,2,3,-5
1584990358.4206128,9,10,3,5,3,0,13,1
1584990358.4206128,-4,20,32,-6,8,5,2,-11
1584990358.441783,-96,-18,0,1,4,-3,-20,-21
1584990358.441783,47,27,10,9,-3,-2,9,33
1584990358.4474335,-2,3,-1,4,1,2,11,-14
1584990358.4474335,-9,-8,-6,-5,0,1,-2,6
1584990358.4549356,-40,-7,-8,3,-4,-4,-6,-24
1584990358.4549356,-2,-1,-6,-24,-3,1,5,3
1584990358.4637985,-25,7,5,0,-3,0,0,-7
1584990358.4637985,-4,-39,-3,0,-1,2,-4,4
1584990358.479033,30,31,10,10,4,2,6,-2
1584990358.479033,36,-12,6,4,5,5,2,18
1584990358.480684,21,29,8,-1,-4,-3,-8,-13
1584990358.480684,20,-10,-6,0,-1,0,2,2
1584990358.5013647,13,-9,-8,2,4,3,1,4
1584990358.5013647,59,38,29,3,2,2,3,14
1584990358.5033615,-99,-22,-8,2,-1,-1,-14,-29
1584990358.5033615,48,30,-5,-1,-4,-2,-5,-27
1584990358.5149481,-128,-31,-5,-7,-1,-1,-2,-3
1584990358.5149481,4,-6,-4,-3,-1,-1,6,4
1584990358.5299911,0,-5,0,-7,-1,-1,1,0
1584990358.5299911,5,17,8,-6,3,0,1,0
1584990358.5388057,1,-3,1,6,-1,3,-7,0
1584990358.5388057,-4,-1,1,-16,-3,1,5,-1
1584990358.540735,-2,-2,-3,0,0,-5,-1,-1
1584990358.540735,-1,-2,-10,0,3,-1,1,-2
1584990358.5613415,-4,-12,-12,-5,-3,-6,-4,-7
1584990358.5613415,6,-44,-10,-5,-4,-2,1,1
1584990358.5628505,8,44,8,4,3,3,0,1
1584990358.5628505,2,23,30,7,4,4,2,5
1584990358.5835133,8,-1,-7,0,3,1,1,0
1584990358.5835133,-10,-12,-15,6,1,-1,4,-2
1584990358.5899718,3,-4,-3,-5,1,2,17,2
1584990358.5899718,13,9,0,1,3,0,-52,2
1584990358.5988212,-19,-16,-2,1,-1,-9,6,-10
1584990358.5988212,-2,3,-4,-8,-3,-7,-7,-4
1584990358.6006234,1,1,-4,-3,-2,2,2,0
1584990358.6006234,1,2,-1,0,1,-1,6,2
1584990358.6226869,1,-2,1,-2,0,4,2,1
1584990358.6226869,8,3,2,3,2,1,35,4
1584990358.624085,-19,-3,-3,1,1,14,-10,0
1584990358.624085,2,2,0,-3,0,-13,3,4
1584990358.6439612,6,0,-2,-1,1,1,-6,2
1584990358.6439612,-1,-1,-3,-2,-2,0,-17,-4
1584990358.6457477,0,-3,0,0,-2,1,4,-1
1584990358.6457477,0,4,2,0,4,2,12,2
1584990358.6588013,-1,-6,-3,-3,2,8,-3,5
1584990358.6588013,-3,2,1,4,-1,-2,1,1
1584990358.6602566,1,-1,-4,-2,-1,-2,3,2
1584990358.6602566,-3,0,-1,2,-2,-1,-4,-2
1584990358.6811192,-4,0,0,0,1,2,-2,-3
1584990358.6811192,0,0,1,-5,-1,-2,-1,-2
1584990358.6874166,0,1,-2,9,-3,1,-2,2
1584990358.6874166,2,1,4,5,4,-1,-1,0
1584990358.7038069,-4,1,1,0,2,-4,1,-2
1584990358.7038069,-2,-2,-2,-3,2,-3,-3,0
1584990358.7054412,0,-1,-4,3,-3,-4,3,-1
1584990358.7054412,1,3,12,2,-4,-1,-1,-3
1584990358.718626,-2,-8,3,-4,-1,-2,-3,3
1584990358.718626,-1,1,-1,0,4,0,-3,-1
1584990358.7249205,-4,-2,-7,-5,-3,-1,-2,1
1584990358.7249205,-1,-1,-4,0,0,-3,-3,-2
1584990358.741306,-1,0,1,1,-5,2,5,2
1584990358.741306,-1,-3,-2,-5,-1,1,1,0
1584990358.7427258,3,4,0,1,-2,0,0,-3
1584990358.7427258,0,-1,0,-1,-1,0,-1,-3
1584990358.7637327,1,0,-1,-3,3,2,2,-3
1584990358.7637327,1,-5,-2,-1,1,2,1,-1
1584990358.7699792,-2,5,2,-1,3,-1,-1,-1
1584990358.7699792,1,3,1,0,1,-1,-1,2
1584990358.7938235,-3,-2,0,0,-2,1,0,2
1584990358.7938235,2,-4,0,-1,1,0,2,0
1584990358.7952,0,1,-2,-1,-1,-1,-4,-2
1584990358.7952,2,-1,0,2,-2,-1,-1,1
1584990358.8013742,1,-5,-2,1,-2,0,-1,-3
1584990358.8013742,1,1,1,1,-1,-1,-1,1
1584990358.803345,0,-1,0,0,-4,0,-1,4
1584990358.803345,-1,0,-1,-1,-4,0,-1,-2
1584990358.8238041,0,1,1,0,-1,0,0,-1
1584990358.8238041,-1,0,1,2,3,-2,3,0
1584990358.8252466,1,0,-3,-2,0,-1,-3,1
1584990358.8252466,-2,5,3,6,2,1,1,2
1584990358.8374481,-1,-1,-3,-2,0,0,-2,-1
1584990358.8374481,-2,0,0,-4,-3,2,2,0
1584990358.8463345,2,-1,-2,0,-1,1,1,-1
1584990358.8463345,-4,-3,-1,2,-4,-2,0,0
1584990358.861352,0,0,-1,0,2,-2,-1,-4
1584990358.861352,-1,-2,0,2,0,-1,-4,-1
1584990358.8629909,1,1,-1,0,1,1,-1,-2
1584990358.8629909,0,-1,1,-2,-1,-2,3,1
1584990358.8838136,3,-2,-1,0,0,1,-1,0
1584990358.8838136,-2,-2,-3,-3,1,3,-2,-1
1584990358.8855803,-3,3,-1,-2,0,0,-3,-1
1584990358.8855803,-4,1,0,-2,-3,-2,0,-1
1584990358.8975441,0,3,1,1,2,-3,1,-2
1584990358.8975441,-3,-2,-1,-1,1,-2,-2,-4
1584990358.9063368,-3,1,0,-3,2,-1,0,-2
1584990358.9063368,3,2,0,-1,0,-2,3,-1
1584990358.9210868,1,-3,0,-2,0,0,-1,1
1584990358.9210868,2,-8,-5,0,1,3,1,1
1584990358.9274664,-3,-6,-6,-2,-1,0,1,7
1584990358.9274664,-3,15,4,3,2,3,4,-4
1584990358.9445004,-7,-16,-8,-6,-4,-2,-4,-6
1584990358.9445004,8,15,9,2,-1,-1,1,-1
1584990358.9464893,1,-3,-3,0,0,-2,-1,1
1584990358.9464893,-2,-7,0,1,-2,-1,-1,15
1584990358.9574292,-1,-1,-1,-2,2,0,2,-5
1584990358.9574292,-2,-6,0,3,0,1,0,-1
1584990358.966371,-2,0,-2,2,-2,0,-2,1
1584990358.966371,1,1,0,2,0,1,0,3
1584990358.9813075,-1,-2,1,4,1,-1,-2,2
1584990358.9813075,-3,0,-1,1,1,1,-2,-18
1584990358.982805,2,6,-1,-1,-1,2,5,39
1584990358.982805,-7,-1,-2,-1,-4,0,-10,-56
1584990359.0038104,5,3,6,2,2,0,0,-2
1584990359.0038104,-1,0,-3,1,-3,3,4,-4
1584990359.0055747,-1,2,0,-1,-2,-1,-4,5
1584990359.0055747,-2,0,-1,1,-4,0,1,5
1584990359.017446,2,2,1,0,-3,-2,-1,7
1584990359.017446,7,-7,-4,-3,-3,-1,1,1
1584990359.0263433,0,4,-1,-2,-3,-1,0,3
1584990359.0263433,-1,1,7,1,0,-2,1,2
1584990359.0491118,1,-8,-3,2,2,0,1,2
1584990359.0491118,-1,6,1,2,0,3,-1,8
1584990359.050618,1,-5,-3,1,3,0,0,-13
1584990359.050618,-1,2,-2,-3,-3,-3,0,2
1584990359.0641084,7,-3,1,-3,2,0,-2,3
1584990359.0641084,1,11,1,2,0,0,1,-4
1584990359.0658998,2,1,-1,-1,-2,-2,0,1
1584990359.0658998,1,2,0,-3,-1,-1,-1,1
1584990359.077605,0,-5,-1,0,-3,-2,0,0
1584990359.077605,1,2,-1,1,0,-2,-1,-1
1584990359.08639,-2,0,-2,-2,0,-4,-5,-6
1584990359.08639,-1,-2,-2,1,-4,3,-1,-1
1584990359.101297,2,-1,0,-2,1,3,3,-2
1584990359.101297,-3,-4,1,1,-2,1,1,-1
1584990359.1026835,2,0,2,0,-1,0,-1,12
1584990359.1026835,-1,1,0,3,-1,1,-2,-6
1584990359.1238132,-2,3,-2,-4,-4,-2,-1,1
1584990359.1238132,-5,-4,-3,-2,-1,-1,-2,0
1584990359.1256418,1,-4,-3,2,-2,0,-1,0
1584990359.1256418,3,1,-1,-1,-2,3,-1,-2
1584990359.146276,-6,-4,3,2,3,4,-2,0
1584990359.146276,0,5,2,-1,0,-1,-4,-5
1584990359.147912,2,-4,-2,-1,-3,-1,1,2
1584990359.147912,-2,4,-2,-1,-2,-4,0,-5
1584990359.1612523,-6,-10,-5,-1,-1,-2,1,2
1584990359.1612523,4,6,0,-1,1,-2,-1,-1
1584990359.1631365,1,-1,-3,-4,0,-1,0,0
1584990359.1631365,-1,-2,0,0,0,-1,-1,1
1584990359.1835601,-3,-2,-1,2,0,-1,0,2
1584990359.1835601,-1,3,2,-1,0,0,1,-3
1584990359.1901317,-1,0,-2,-1,0,-1,-1,-1
1584990359.1901317,3,-3,0,-3,1,1,-2,1
1584990359.1974235,1,2,1,1,2,1,-2,6
1584990359.1974235,-1,0,-1,-1,-2,2,-3,-5
1584990359.2063227,1,3,1,1,0,0,-7,0
1584990359.2063227,1,1,2,-2,1,-2,0,-3
1584990359.2212687,-3,0,0,1,2,-1,-2,9
1584990359.2212687,2,-5,-1,-1,-1,-2,2,1
1584990359.2231596,3,4,0,-1,-2,-2,-3,-10
1584990359.2231596,-1,3,3,-1,-4,3,-1,10
1584990359.2437968,0,-6,-2,-1,-1,-1,3,-1
1584990359.2437968,4,-1,-2,2,-7,0,0,-1
1584990359.2454767,-2,-1,-1,-4,1,-3,2,0
1584990359.2454767,-4,0,1,-3,0,-1,1,-5
1584990359.2574732,5,2,2,2,1,3,-2,9
1584990359.2574732,3,-2,-1,0,-3,-1,-1,2
1584990359.266289,-5,0,-1,-1,1,1,0,-3
1584990359.266289,1,-1,-2,-3,2,-3,1,-1
1584990359.2810626,0,0,3,0,-1,0,-1,-3
1584990359.2810626,0,-1,2,1,0,0,-1,-1
1584990359.2874706,-5,0,1,2,1,0,2,0
1584990359.2874706,1,1,-5,0,2,-1,1,3
1584990359.3039513,-2,-4,0,1,-3,0,1,-1
1584990359.3039513,0,0,-3,1,0,-4,-1,-1
1584990359.3057382,-4,-3,-3,2,-4,-3,1,3
1584990359.3057382,5,5,3,0,0,4,-1,2
1584990359.3174622,-3,-4,2,2,-5,0,-1,-3
1584990359.3174622,-16,0,-2,-1,1,-1,1,-6
1584990359.3263338,2,-2,-3,-5,-2,1,-2,-2
1584990359.3263338,1,-3,-1,-2,-1,-1,-4,-2
1584990359.3413107,5,1,1,0,1,0,-1,1
1584990359.3413107,-8,-5,1,-3,-1,-4,-2,-11
1584990359.3431737,0,0,1,-4,-2,-1,1,2
1584990359.3431737,0,3,4,4,0,0,2,-1
1584990359.3638394,-2,-4,0,0,5,-3,-1,4
1584990359.3638394,13,-1,-2,0,0,-1,1,4
1584990359.3655913,0,11,3,0,-4,1,-2,-9
1584990359.3655913,-37,0,0,1,-3,1,-2,-5
1584990359.3937988,-12,-11,-2,-2,2,1,-3,-14
1584990359.3937988,10,-2,-3,-2,-2,-1,1,3
1584990359.395737,11,4,-1,-2,-1,-2,2,3
1584990359.395737,16,4,4,2,1,2,1,7
1584990359.401309,2,-8,-2,-2,2,1,-3,-1
1584990359.401309,-18,-1,-2,-3,-1,-1,1,-3
1584990359.403136,5,1,-3,1,-2,-1,2,2
1584990359.403136,1,0,0,2,3,1,-4,0
1584990359.423815,1,-2,-1,-3,2,1,1,0
1584990359.423815,2,0,1,2,0,0,4,1
1584990359.4256418,2,3,0,0,0,0,0,3
1584990359.4256418,0,-1,2,0,-1,-1,0,2
1584990359.4375901,-4,-2,-3,-2,0,1,-4,-1
1584990359.4375901,3,-5,-2,0,-3,-2,6,-8
1584990359.4462993,-1,0,-2,-2,-2,0,0,0
1584990359.4462993,-4,0,0,-2,1,3,11,-4
1584990359.4613223,-1,2,2,-3,2,-3,-14,2
1584990359.4613223,10,0,0,0,-3,0,12,4
1584990359.4627166,-2,0,0,0,-2,0,-8,-5
1584990359.4627166,-14,-8,-2,-2,-1,1,-2,-1
1584990359.4838336,-1,0,0,1,1,-1,5,-2
1584990359.4838336,37,3,1,2,-3,-1,4,16
1584990359.4852593,-4,3,2,0,-2,1,1,3
1584990359.4852593,-20,-9,-5,-3,-7,-1,-4,-11
1584990359.5063336,26,2,1,2,2,-2,2,4
1584990359.5063336,-4,3,3,2,2,-1,0,11
1584990359.5082705,0,2,-1,0,-1,-3,-1,-9
1584990359.5082705,21,7,2,-1,0,0,0,16
1584990359.5210772,-9,-5,-4,-1,0,0,1,-5
1584990359.5210772,2,-3,2,-1,-3,-1,-1,1
1584990359.5275378,-1,3,2,-3,-1,-1,-1,-2
1584990359.5275378,-1,-4,1,-3,-1,1,1,3
1584990359.5438466,0,-1,2,-1,2,2,-4,-2
1584990359.5438466,-1,1,-2,0,-2,-2,2,-1
1584990359.5457146,-1,-1,0,0,-2,0,1,3
1584990359.5457146,0,-4,-3,-5,0,1,1,-3
1584990359.566315,-5,1,-2,-1,-1,-4,0,-4
1584990359.566315,-25,1,2,0,-2,0,1,-7
1584990359.5677464,23,1,-1,2,-1,-2,-2,-4
1584990359.5677464,13,-12,-7,-5,-4,-3,-6,9
1584990359.5812385,-28,0,-2,0,4,4,2,4
1584990359.5812385,13,1,-2,3,2,2,1,-12
1584990359.5826879,1,-4,-3,1,-3,0,1,8
1584990359.5826879,-7,-4,-4,-4,-1,-3,-8,-23
1584990359.603926,-16,-3,-1,0,-3,-1,-2,-15
1584990359.603926,11,5,3,2,3,-1,3,7
1584990359.605699,-5,2,1,1,0,1,1,7
1584990359.605699,-17,-1,2,2,1,-2,-1,-18
1584990359.6263177,-16,-9,-8,-6,-1,-1,-6,-8
1584990359.6263177,9,-3,0,-3,0,-1,0,7
1584990359.6281111,19,4,3,0,-1,-3,2,10
1584990359.6281111,1,2,4,2,0,3,-1,-3
1584990359.6412845,10,5,3,-1,2,1,5,22
1584990359.6412845,-45,-12,-8,-3,-5,0,-9,-33
1584990359.642686,-3,0,-3,-1,-6,-2,-9,-36
1584990359.642686,-11,-3,-2,-1,4,0,-3,-26
1584990359.6638088,-5,5,3,2,5,2,4,2
1584990359.6638088,-30,-3,-3,-4,-1,0,-2,14
1584990359.6655834,42,4,1,-1,-5,2,1,16
1584990359.6655834,-9,-14,0,-5,-4,-4,-4,-22
1584990359.6862948,-14,2,7,5,1,7,3,-3
1584990359.6862948,-15,5,-2,1,0,1,-1,5
1584990359.687686,29,3,-4,0,1,3,5,15
1584990359.687686,45,-7,-3,-5,-1,-1,-6,-2
1584990359.7012734,-50,-5,-1,-3,0,-3,-4,-6
1584990359.7012734,-20,0,1,-1,3,-1,-1,-16
1584990359.702698,10,5,-3,1,-3,1,4,5
1584990359.702698,5,1,6,3,1,1,1,2
1584990359.7239316,6,-1,2,0,3,0,2,4
1584990359.7239316,21,2,-3,-1,-1,2,-1,3
1584990359.7258096,-18,1,1,2,0,-1,2,-4
1584990359.7258096,50,11,3,3,2,3,4,10
1584990359.7462757,-46,-26,-12,-12,-7,-5,-7,-10
1584990359.7462757,23,4,0,0,1,-4,-3,4
1584990359.747979,-7,5,-3,-1,-2,-3,1,5
1584990359.747979,51,9,5,2,3,3,2,8
1584990359.7610583,3,4,2,0,1,-2,1,-1
1584990359.7610583,-47,-3,-4,-2,0,-1,-3,-11
1584990359.7688723,1,-10,-7,-2,-1,-2,-3,-8
1584990359.7688723,3,-1,-1,-1,-1,1,-1,10
1584990359.7837815,-16,16,4,3,1,3,9,22
1584990359.7837815,33,-11,-5,-3,1,-1,-5,-12
1584990359.7851958,-88,-15,-8,-4,-2,-3,-6,-44
1584990359.7851958,12,6,-1,2,-2,-2,-1,18
1584990359.8062842,-5,-5,1,-1,2,2,2,13
1584990359.8062842,-21,4,4,4,1,0,0,11
1584990359.8080997,48,-16,-6,-3,-1,1,-2,-22
1584990359.8080997,-21,1,5,-2,-3,-1,-1,-30
1584990359.8199742,-31,4,-10,-3,-1,-1,0,2
1584990359.8199742,5,-14,-10,5,2,1,13,3
1584990359.8287983,16,16,43,11,6,4,6,17
1584990359.8287983,5,33,15,4,2,6,5,3
1584990359.8437798,85,-18,-28,-8,-6,-5,-9,-11
1584990359.8437798,37,2,-8,-6,-5,-6,-8,14
1584990359.845567,-11,0,-10,-2,-9,1,0,-40
1584990359.845567,-7,0,-9,-5,9,0,4,29
1584990359.8669465,-9,-6,2,-2,-7,2,9,-25
1584990359.8669465,-76,8,6,4,-1,16,13,15
1584990359.8683357,17,2,-3,2,-4,-3,-8,-6
1584990359.8683357,20,0,-4,-6,-2,-7,-1,7
1584990359.879982,2,-2,-2,-5,-1,-7,-10,-34
1584990359.879982,-9,-2,-5,-1,1,1,7,2
1584990359.88882,-12,-1,-7,-1,-2,0,2,33
1584990359.88882,115,24,22,11,1,6,6,28
1584990359.9039075,-71,7,27,13,8,10,8,-13
1584990359.9039075,-76,8,-16,-8,-6,-11,-13,-5
1584990359.905614,111,-34,-28,-15,-6,-4,-9,-17
1584990359.905614,-97,25,8,8,4,10,14,29
1584990359.9263482,127,-25,-12,-6,-4,-4,-8,38
1584990359.9263482,-27,37,52,15,12,16,31,126
1584990359.9281352,82,-48,-39,-17,-9,-16,-36,-106
1584990359.9281352,44,37,-4,1,0,-4,-14,86
1584990359.9399688,-128,-14,3,5,5,2,12,-48
1584990359.9399688,-43,3,-3,-5,-9,-12,-48,-53
1584990359.9488235,20,-11,-11,1,-3,0,5,125
1584990359.9488235,9,17,16,12,7,14,13,49
1584990359.9637825,127,10,0,7,2,10,35,120
1584990359.9637825,-128,-41,-19,-14,-5,-11,-55,-128
1584990359.9655352,127,70,19,6,3,9,41,34
1584990359.9655352,-128,-43,1,7,4,8,10,51
1584990359.98671,126,-5,2,0,-5,3,10,-50
1584990359.98671,127,29,12,4,-3,-6,-12,45
1584990359.9881048,-13,28,-4,-6,0,-3,-3,33
1584990359.9881048,-100,49,27,21,14,17,26,17
1584990360.0000327,-40,-37,-16,-13,-11,-10,-13,-23
1584990360.0000327,-128,26,20,-1,6,0,-2,-128
1584990360.0088384,62,37,32,15,7,0,-13,121
1584990360.0088384,127,-26,-50,-20,-13,-23,-6,41
1584990360.0240073,-90,54,12,3,3,6,31,-128
1584990360.0240073,80,27,9,9,8,0,2,64
1584990360.0258765,127,10,-6,-12,-19,-26,-27,-53
1584990360.0258765,-128,2,6,2,7,12,21,15
1584990360.0462809,90,-26,-2,0,-2,-4,5,-35
1584990360.0462809,-2,-29,-19,-14,-10,-8,16,49
1584990360.0480282,-128,30,15,19,11,6,55,39
1584990360.0480282,-128,-29,-18,-28,-22,-24,-29,-58
1584990360.0599518,-127,-57,-7,-1,-1,2,-34,-128
1584990360.0599518,-128,30,22,19,14,16,31,-35
1584990360.0695791,-121,79,7,-5,-5,0,13,29
1584990360.0695791,-53,46,2,8,10,12,38,46
1584990360.085071,-128,32,48,24,19,18,27,-6
1584990360.085071,127,112,7,-8,-8,-13,-16,42
1584990360.0866082,-26,-4,40,35,27,34,67,102
1584990360.0866082,127,46,41,1,1,7,9,23
1584990360.1148667,-70,10,-5,1,-1,-5,-22,40
1584990360.1148667,76,-71,-22,-3,-1,-14,-17,-128
1584990360.1165395,-128,-86,-76,-38,-24,-26,2,-76
1584990360.1165395,127,60,8,14,5,9,47,127
1584990360.1198251,-128,-106,-6,-17,-23,-28,-56,-128
1584990360.1198251,-61,-36,28,12,10,2,-33,9
1584990360.1287577,-93,66,64,41,30,36,58,127
1584990360.1287577,-38,-111,-70,-50,-36,-40,-60,-128
1584990360.143798,-29,81,3,-8,1,4,9,-37
1584990360.143798,127,7,-5,5,0,-7,-47,127
1584990360.145583,86,-44,-15,-1,4,21,37,127
1584990360.145583,-37,8,13,-30,-26,-39,-96,-128
1584990360.1662714,82,27,32,15,10,14,27,127
1584990360.1662714,-128,-100,-39,-19,-13,-32,-39,-128
1584990360.1676865,127,31,-20,-21,-12,-11,-1,-44
1584990360.1676865,41,81,11,9,5,6,7,127
1584990360.1799066,-128,-20,0,8,8,14,11,-27
1584990360.1799066,17,127,41,-1,-15,-38,-61,-128
1584990360.1888232,-58,22,29,3,5,19,-16,-75
1584990360.1888232,-72,-39,0,6,6,16,39,49
1584990360.2039175,-38,63,12,9,5,9,21,87
1584990360.2039175,127,10,4,2,5,0,26,91
1584990360.2057025,-128,-10,1,8,0,12,22,19
1584990360.2057025,-128,-95,-48,-28,-15,-20,-19,-36
1584990360.2262607,-12,35,9,3,6,19,27,127
1584990360.2262607,-128,-44,-21,-9,-4,-19,-7,-92
1584990360.2280002,4,-8,2,5,5,-4,0,95
1584990360.2280002,127,35,18,1,-8,-15,2,-60
1584990360.2399206,-128,-116,-47,-32,-22,-30,-78,-75
1584990360.2399206,71,27,-5,-5,-6,-3,5,39
1584990360.2488089,71,22,-10,-3,-3,19,-4,-1
1584990360.2488089,102,-7,26,11,1,16,33,-10
1584990360.2637517,127,60,-14,-2,-12,-13,24,-17
1584990360.2637517,-14,-23,-9,-7,-2,2,8,-128
1584990360.2654862,-4,50,23,17,12,21,41,127
1584990360.2654862,9,-32,-31,-24,-18,-17,-54,-83
1584990360.2862499,127,-4,-15,-5,-3,-2,19,-63
1584990360.2862499,89,10,-8,-12,-11,-16,-22,-34
1584990360.287705,-98,8,16,12,4,23,18,39
1584990360.287705,-13,-3,-4,2,3,6,11,-6
1584990360.2999105,18,11,14,11,8,7,3,-22
1584990360.2999105,-100,-18,-13,-6,-2,-17,0,-46
1584990360.308826,33,25,21,6,3,17,7,5
1584990360.308826,-28,5,-3,1,5,7,2,-43
1584990360.3239083,-128,-17,-6,-5,-1,4,-5,-15
1584990360.3239083,127,46,12,9,6,11,27,127
1584990360.325689,-85,-16,-9,-11,-5,0,-9,-27
1584990360.325689,-44,19,9,3,1,1,10,75
1584990360.3544502,114,-1,-6,-3,-4,1,-5,-110
1584990360.3544502,113,15,6,-1,-7,-9,-3,80
1584990360.3558807,127,-15,-4,-5,-9,-13,-29,-128
1584990360.3558807,69,9,-8,9,10,-7,18,60
1584990360.3607829,-51,3,13,1,5,26,-2,6
1584990360.3607829,21,3,-7,-1,0,4,7,18
1584990360.368817,1,-1,-9,-3,0,7,22,17
1584990360.368817,13,7,12,3,2,-4,-13,-45
1584990360.3837852,40,18,11,7,5,13,15,57
1584990360.3837852,2,12,0,-8,-4,-37,-10,-43
1584990360.3851678,28,-7,-10,-6,-5,21,1,8
1584990360.3851678,-3,5,16,7,7,6,4,12
1584990360.406279,-37,14,5,5,2,11,3,27
1584990360.406279,-32,-15,-12,-9,-1,-8,-13,-18
1584990360.4080267,-7,-2,3,0,3,-2,7,16
1584990360.4080267,20,0,4,-2,-1,-1,0,6
1584990360.427889,-2,20,20,15,10,10,19,15
1584990360.427889,64,-1,-23,-10,-10,-14,-21,-5
1584990360.4362628,-41,-2,-6,-7,-5,-3,-9,-6
1584990360.4362628,12,1,14,2,4,9,5,25
1584990360.4437718,62,5,-7,0,3,-7,8,-3
1584990360.4437718,61,-5,-2,-1,1,6,-6,-13
1584990360.4455824,-26,-6,3,-1,0,1,5,-3
1584990360.4455824,3,-3,-2,-2,0,6,-1,1
1584990360.4663026,6,-7,-3,-2,-2,2,6,-1
1584990360.4663026,47,4,2,4,1,5,-10,0
1584990360.467725,-34,7,8,2,1,6,4,-24
1584990360.467725,9,4,-4,-3,2,2,9,11
1584990360.4891865,-1,-4,-4,-2,-6,-17,-4,1
1584990360.4891865,3,-4,0,-3,3,-3,1,1
1584990360.4911969,43,8,8,3,0,0,2,11
1584990360.4911969,-128,-9,11,6,6,6,5,-33
1584990360.503779,77,-21,-26,-17,-8,-11,-18,-48
1584990360.503779,-2,6,3,4,1,2,1,7
1584990360.5051997,-21,-2,0,2,1,-5,1,6
1584990360.5051997,5,-1,-1,0,0,2,1,1
1584990360.526297,-28,-7,-2,-5,0,3,8,7
1584990360.526297,97,7,-6,2,1,-4,-2,26
1584990360.5282133,-49,-14,0,1,-3,7,-4,-34
1584990360.5282133,13,18,29,10,0,0,1,8
1584990360.5490952,7,0,-7,-1,1,-5,-1,4
1584990360.5490952,4,-2,-7,-5,-2,6,4,-1
1584990360.5503156,0,-4,-5,1,-4,-10,-1,2
1584990360.5503156,-4,-6,-5,-3,0,4,10,0
1584990360.5637774,0,2,8,6,-2,5,-4,2
1584990360.5637774,0,9,2,1,2,5,-12,1
1584990360.5654972,1,1,6,6,8,19,3,-2
1584990360.5654972,-10,-9,-6,-4,-5,-43,-12,-7
1584990360.592871,-8,-4,-5,-4,0,-20,1,-2
1584990360.592871,17,2,-9,-7,-2,-17,-1,-1
1584990360.601286,-20,2,6,-3,3,9,2,4
1584990360.601286,29,-6,20,8,2,1,0,-11
1584990360.608995,-18,2,3,-5,-5,4,-5,3
1584990360.608995,41,9,-3,1,-1,-6,0,1
1584990360.6108174,-15,-13,-16,-10,-4,17,-13,-34
1584990360.6108174,9,-4,-6,-6,-5,-17,2,-1
1584990360.6230714,0,-2,-2,3,-8,-22,4,7
1584990360.6230714,5,10,11,4,-1,0,-1,3
1584990360.6298769,0,-3,-5,-4,4,13,3,1
1584990360.6298769,-12,-1,0,0,1,-15,0,-3
1584990360.6462784,0,1,2,0,7,31,-3,-1
1584990360.6462784,5,2,2,5,-4,-14,-2,3
1584990360.6479743,3,-5,-7,-3,-4,-17,-2,4
1584990360.6479743,-2,-2,-5,-7,4,2,-6,-7
1584990360.6690884,0,1,-3,-5,-2,6,3,0
1584990360.6690884,1,1,-2,2,2,23,-2,-1
1584990360.6709402,8,5,7,4,4,15,4,3
1584990360.6709402,11,-3,-3,-2,-8,-23,-4,6
1584990360.6825325,-7,-6,-1,0,-1,-11,-1,-11
1584990360.6825325,-27,3,-1,1,3,17,9,-6
1584990360.6987953,6,-3,-6,-6,-4,-14,-7,-3
1584990360.6987953,7,-5,0,2,3,5,3,4
1584990360.7150593,7,6,11,6,2,9,0,0
1584990360.7150593,-11,1,-1,2,-3,-6,2,-1
1584990360.7167325,9,3,0,-1,-3,10,4,6
1584990360.7167325,-9,-3,0,-4,-2,2,-2,-10
1584990360.7292764,-17,-11,-3,-4,-3,-3,-1,-3
1584990360.7292764,4,11,-2,5,2,11,3,4
1584990360.7430286,2,5,2,-2,1,-6,-2,2
1584990360.7430286,1,-3,0,-2,-2,-4,-2,1
1584990360.7443113,-1,0,2,-2,5,-4,3,1
1584990360.7443113,0,1,-1,-3,-4,-9,3,-3
1584990360.7512395,-1,-1,2,0,0,11,3,-2
1584990360.7512395,2,-1,3,2,2,-7,2,1
1584990360.766322,0,-2,1,-4,6,15,-1,1
1584990360.766322,-2,-3,-2,-1,-4,-11,1,-1
1584990360.7681243,-1,1,0,-1,-4,-8,-2,2
1584990360.7681243,2,0,-2,-1,1,-5,1,1
1584990360.7890549,1,-2,-1,2,-1,6,-4,-1
1584990360.7890549,2,2,0,0,1,-9,-4,-3
1584990360.7907817,3,-2,-1,-2,-1,5,0,-2
1584990360.7907817,2,-2,-5,-2,1,3,-2,-3
1584990360.8025682,0,-4,-2,1,1,2,-4,-2
1584990360.8025682,1,6,11,3,0,2,1,0
1584990360.8112798,-1,0,-7,0,-2,1,1,-2
1584990360.8112798,-2,-14,-6,0,2,2,3,0
1584990360.8337657,-1,17,15,-2,0,1,-4,2
1584990360.8337657,2,0,-10,0,0,0,0,0
1584990360.8352187,-1,-3,11,1,2,0,-3,1
1584990360.8352187,-4,2,-8,-1,-3,-4,-1,0
1584990360.8490415,0,-8,-7,-1,-2,0,-2,-1
1584990360.8490415,5,2,-1,1,0,0,1,3
1584990360.850312,-1,0,-4,2,0,-3,-3,0
1584990360.850312,4,-1,-2,-3,0,1,0,-2
1584990360.862609,-31,-8,-1,1,3,9,3,-4
1584990360.862609,0,0,-1,-2,-1,-16,-7,-6
1584990360.8711674,-1,-1,-1,-3,1,2,-3,-6
1584990360.8711674,8,-1,1,2,-1,0,-1,2
1584990360.8867576,3,-2,-1,1,-2,2,1,2
1584990360.8867576,2,1,-1,0,4,0,-2,2
1584990360.8881438,0,0,4,0,0,0,-1,1
1584990360.8881438,-2,1,0,2,2,0,0,1
1584990360.9090831,-2,-3,-2,2,-4,-1,-1,-1
1584990360.9090831,-5,-1,0,0,1,0,0,-1
1584990360.910846,-5,0,-1,-4,-1,-2,1,1
1584990360.910846,-1,-4,1,2,1,-2,-3,-1
1584990360.9225552,-1,4,4,1,0,0,-4,-4
1584990360.9225552,-2,3,-5,-1,-1,-1,0,-1
1584990360.931307,1,-8,-2,-1,-2,-3,1,-6
1584990360.931307,2,10,6,2,-1,2,4,1
1584990360.9466875,0,-6,-6,-4,-1,1,1,0
1584990360.9466875,2,5,8,6,3,3,1,0
1584990360.9484496,-2,14,6,-1,1,-2,0,-1
1584990360.9484496,2,-16,-14,-4,-3,-3,1,-2
1584990360.9692755,2,5,-1,-4,0,-1,1,2
1584990360.9692755,11,5,0,2,1,-1,0,3
1584990360.974843,-31,-5,-1,-3,-1,1,-2,-3
1584990360.974843,2,-3,0,-1,2,1,-3,-7
1584990360.9915404,7,3,-3,-1,0,-1,-1,0
1584990360.9915404,4,5,-1,1,-1,-1,-2,3
1584990360.9932811,1,-3,-1,-1,0,0,-1,-3
1584990360.9932811,-2,-1,4,2,3,1,-1,-1
1584990361.006288,2,-3,1,-1,-1,1,0,-1
1584990361.006288,0,0,-1,0,-1,0,-1,-4
1584990361.0082176,-2,-3,0,-2,-2,0,1,-2
1584990361.0082176,-1,-1,2,1,-3,-1,-3,1
1584990361.0292523,-1,-2,-3,-4,-1,1,-2,0
1584990361.0292523,0,0,0,0,-1,-2,1,-2
1584990361.03111,-4,-4,-6,-3,-2,1,-2,-5
1584990361.03111,-1,2,1,0,-2,-2,-3,-2
1584990361.0425582,10,3,2,1,0,-2,0,0
1584990361.0425582,-28,0,-3,-2,-1,-1,2,-7
1584990361.0513,0,-6,1,-3,-2,0,-1,3
1584990361.0513,1,-7,-7,-3,2,0,-1,1
1584990361.066901,11,12,5,3,-1,-2,-2,4
1584990361.066901,-12,-2,-1,-4,1,-2,0,-4
1584990361.0682237,12,-2,1,1,1,-3,1,6
1584990361.0682237,-16,4,6,1,1,-2,0,-5
1584990361.0888042,33,-2,-11,-1,1,3,0,10
1584990361.0888042,-12,-8,-6,-2,-4,-4,-2,1
1584990361.0906181,0,4,4,0,-4,0,-1,0
1584990361.0906181,1,2,2,1,0,1,2,3
1584990361.102522,4,1,4,-3,-1,2,-2,-4
1584990361.102522,2,1,-3,-1,-3,-4,2,2
1584990361.1112149,-1,-2,-1,-1,3,-1,-2,1
1584990361.1112149,0,-2,-4,0,-1,2,-3,-3
1584990361.1262307,-2,3,4,0,-2,-1,-1,-1
1584990361.1262307,0,1,-1,3,0,0,1,-2
1584990361.127954,-2,-1,-3,-2,-1,1,3,3
1584990361.127954,-5,-1,0,-4,1,3,1,0
1584990361.1486692,-1,-2,-1,3,3,2,-2,3
1584990361.1486692,0,0,-1,-2,0,-2,-2,1
1584990361.15099,2,-5,-5,-2,-1,-1,3,-3
1584990361.15099,12,-1,0,3,-1,0,-3,-3
1584990361.1714444,-26,-7,-3,-1,-1,-1,0,-1
1584990361.1714444,8,10,3,0,0,-6,-3,3
1584990361.1741111,4,-4,1,3,3,0,-1,-1
1584990361.1741111,-9,-3,3,-2,-1,0,-3,1
1584990361.1927416,4,4,-3,-2,3,-2,-4,-6
1584990361.1927416,2,-7,-12,-1,-4,0,3,0
1584990361.2011726,-4,-5,2,1,-1,0,-2,-2
1584990361.2011726,8,6,6,0,0,0,0,1
1584990361.2100093,-23,-6,-10,-2,-1,-1,-7,-2
1584990361.2100093,5,5,0,0,-1,-2,-1,-1
1584990361.214881,4,-2,3,1,3,-1,-1,1
1584990361.214881,5,-4,0,2,-1,1,0,4
1584990361.222548,-3,-2,-3,-2,2,3,-2,0
1584990361.222548,-3,-3,-4,0,-2,0,-1,0
1584990361.2312183,5,0,1,-1,0,0,4,10
1584990361.2312183,1,-3,1,-1,0,-1,-3,-11
1584990361.246257,-1,-1,1,3,2,-1,0,2
1584990361.246257,1,1,-1,0,0,-2,0,-1
1584990361.247579,0,0,-1,-2,-1,5,-1,0
1584990361.247579,-5,-4,0,2,-1,-1,0,1
1584990361.269332,3,4,-2,-2,-6,-5,-1,-2
1584990361.269332,-1,8,2,2,2,-2,1,0
1584990361.2713025,2,-5,-3,-2,-1,0,-2,0
1584990361.2713025,-6,-6,-5,-5,2,2,-2,0
1584990361.2825363,14,-3,-3,2,-3,-1,1,1
1584990361.2825363,-39,1,5,-1,0,0,-1,-6
1584990361.291259,2,0,3,5,1,-1,1,0
1584990361.291259,2,-3,-6,-3,-1,4,-1,-1
1584990361.3067667,10,-1,-1,-2,-2,1,-1,1
1584990361.3067667,0,3,2,1,0,2,-1,-2
1584990361.3085127,1,-2,-2,-3,-1,-2,1,1
1584990361.3085127,4,-1,0,1,0,-1,-2,-3
1584990361.3292544,-12,-6,-3,-1,4,0,1,-5
1584990361.3292544,-2,3,4,5,-2,2,1,-2
1584990361.3348699,0,2,-1,-2,0,-2,1,0
1584990361.3348699,-1,0,-7,-2,1,-1,1,1
1584990361.3512063,-1,-2,-1,1,-2,-2,-3,-6
1584990361.3512063,-1,-1,2,2,-1,-1,0,1
1584990361.3526185,-1,1,-1,2,1,-2,-4,-8
1584990361.3526185,-2,-3,-2,2,-3,0,0,2
1584990361.366262,1,-3,-3,-7,-1,2,-1,1
1584990361.366262,-5,1,-5,-1,-3,-1,-3,2
1584990361.3679676,1,-4,1,0,1,2,0,-1
1584990361.3679676,-3,4,5,3,1,1,1,0
1584990361.388993,5,3,4,-4,-4,-3,0,3
1584990361.388993,-2,0,-2,0,-3,-2,-3,1
1584990361.3907542,-20,-9,1,-2,-4,1,-4,-2
1584990361.3907542,0,-4,-2,-2,-1,-1,-3,-3
1584990361.4112716,0,0,3,-1,5,1,3,9
1584990361.4112716,-4,6,1,-3,-2,-3,-2,-12
1584990361.4130464,8,-4,-3,0,3,3,1,3
1584990361.4130464,0,-5,-4,-1,-2,-1,0,1
1584990361.4337802,-1,-1,3,2,-1,0,3,3
1584990361.4337802,-2,3,-1,1,-1,-4,-4,-12
1584990361.4351234,-1,-3,-1,1,-2,-1,1,-6
1584990361.4351234,-3,-4,0,1,0,-1,-4,-3
1584990361.4489903,5,0,2,0,-2,-2,-1,2
1584990361.4489903,0,4,-3,-3,-1,-2,-1,2
1584990361.4504228,0,-1,2,1,-1,0,-1,-1
1584990361.4504228,0,-4,-2,-3,-3,-1,-1,-1
1584990361.4714658,8,5,-1,1,-3,1,0,2
1584990361.4714658,4,4,-2,0,-2,0,1,-1
1584990361.4737215,-3,-1,1,0,-4,0,1,-1
1584990361.4737215,-9,-3,-3,-1,0,0,-3,-4
1584990361.486208,16,0,-2,-3,0,0,-3,-2
1584990361.486208,-32,-3,-1,-1,-3,1,-3,-5
1584990361.4876354,6,0,-1,0,-2,2,1,3
1584990361.4876354,7,-5,-2,0,1,-1,1,6
1584990361.5087464,-4,-3,-2,-3,4,4,0,-3
1584990361.5087464,1,5,2,4,1,2,0,1
1584990361.510529,0,5,2,1,1,-1,-3,0
1584990361.510529,3,-5,-4,-1,-3,-2,0,1
1584990361.531252,0,0,3,-1,2,0,2,3
1584990361.531252,-34,2,-1,0,3,-2,0,9
1584990361.533118,-25,-11,0,-3,0,-4,-9,-36
1584990361.533118,12,-8,0,-1,-5,1,-3,3
1584990361.545301,10,9,-2,0,-5,-3,-1,5
1584990361.545301,6,1,-1,-1,2,-4,-2,1
1584990361.5601604,0,-2,-2,-1,1,1,0,3
1584990361.5601604,-1,-3,-3,0,0,-2,2,-1
1584990361.568775,-1,0,1,-1,-1,-2,-5,-5
1584990361.568775,-5,3,2,-1,-2,-1,1,-3
1584990361.570729,0,0,3,2,0,-1,2,2
1584990361.570729,2,-2,-1,1,0,0,-1,-4
1584990361.5914822,6,6,2,0,2,2,1,6
1584990361.5914822,-6,-3,-2,-2,-1,0,-3,-7
1584990361.5935764,-5,-4,-2,-1,-1,-2,1,-1
1584990361.5935764,4,1,0,-3,2,-1,-1,-7
1584990361.6050675,-1,0,-1,1,-2,1,1,4
1584990361.6050675,8,2,-2,-3,-2,0,2,5
1584990361.6137002,8,-1,-2,0,-1,-2,-9,-16
1584990361.6137002,-39,-6,3,-2,-2,-2,0,-6
1584990361.6289277,10,0,0,5,1,-1,1,7
1584990361.6289277,-3,-1,-3,1,-5,0,1,-4
1584990361.630724,-10,2,-1,-3,0,1,-1,-9
1584990361.630724,1,-3,-4,-1,-3,-2,0,6
1584990361.6512558,5,6,0,3,2,0,2,-3
1584990361.6512558,-8,-7,-2,-1,-4,-1,-2,-2
1584990361.6526132,2,4,6,1,2,4,3,6
1584990361.6526132,1,-5,-5,-2,0,1,1,-2
1584990361.6737785,-3,0,1,0,1,0,0,-3
1584990361.6737785,7,2,2,-2,2,-1,-1,3
1584990361.6756003,-4,3,1,-1,-1,-1,2,-1
1584990361.6756003,-7,-4,-1,-1,-4,2,1,-2
1584990361.689261,-1,-1,0,2,1,-1,-4,-1
1584990361.689261,0,1,-3,-5,-2,1,1,-10
1584990361.6948495,-3,1,4,-2,0,0,-4,-4
1584990361.6948495,-1,-3,3,3,3,0,1,0
1584990361.7113957,6,1,0,0,1,2,0,17
1584990361.7113957,-13,-4,-4,-1,0,-3,1,-7
1584990361.713772,8,0,-4,-2,-2,-2,-5,-7
1584990361.713772,-38,-6,-2,1,0,0,-3,-7
1584990361.724891,12,5,3,1,2,-3,4,23
1584990361.724891,1,3,0,2,-4,3,-2,-5
1584990361.7337666,-8,-4,0,-5,-3,-1,-1,-7
1584990361.7337666,15,-1,-1,-3,-2,-2,0,9
1584990361.74889,-8,-1,-2,-1,-1,-1,-3,-5
1584990361.74889,7,4,2,3,-1,1,4,10
1584990361.7503216,5,0,3,-1,-2,2,0,10
1584990361.7503216,7,-3,-1,2,0,-5,3,13
1584990361.771174,-11,-2,-2,0,3,2,-1,-21
1584990361.771174,8,0,-1,-1,-3,6,0,3
1584990361.7725422,1,3,1,-1,-4,0,-2,2
1584990361.7725422,10,1,4,-1,2,4,2,13
1584990361.7928848,-21,-4,-2,-3,2,5,-3,-26
1584990361.7928848,6,-3,0,-1,-2,-22,-9,2
1584990361.8011367,-3,0,-1,0,-1,-1,2,-6
1584990361.8011367,-8,-3,-3,-3,-1,7,-3,-6
1584990361.8092995,14,0,-2,1,1,0,-1,2
1584990361.8092995,3,2,1,2,2,1,4,9
1584990361.8147962,-6,-3,-4,-2,0,-2,-2,11
1584990361.8147962,-32,-16,-7,-3,-1,-4,-7,-53
1584990361.8312116,8,7,3,-1,-3,-3,-7,-3
1584990361.8312116,-27,7,1,2,1,3,5,9
1584990361.8330119,-38,7,0,3,0,2,4,19
1584990361.8330119,94,-25,-15,-9,-10,-8,-12,-13
1584990361.8449101,56,13,2,2,2,2,7,41
1584990361.8449101,-42,5,3,-2,3,1,-1,-9
1584990361.8537254,-62,-15,0,-1,-1,2,-7,-30
1584990361.8537254,15,9,2,2,2,1,2,5
1584990361.8688817,39,9,1,-1,2,2,5,17
1584990361.8688817,-17,-5,-6,-3,-3,0,4,-8
1584990361.8707848,8,-1,1,2,-2,2,-4,21
1584990361.8707848,4,-5,2,-3,-2,1,-3,-7
1584990361.8914328,-3,0,-4,-2,1,-4,-2,-2
1584990361.8914328,-3,2,-1,-3,1,1,0,4
1584990361.8937845,-20,-2,1,-3,-2,1,-1,-3
1584990361.8937845,34,-5,-6,-3,-3,0,0,10
1584990361.9050689,-23,0,-6,-4,-2,-3,-1,-10
1584990361.9050689,-4,5,1,1,0,0,-2,11
1584990361.9197989,12,11,4,3,4,1,5,-1
1584990361.9197989,13,-11,1,-2,-2,1,-5,-20
1584990361.9288652,44,7,-5,-3,-3,0,0,8
1584990361.9288652,-4,5,2,1,3,-1,0,-1
1584990361.930769,30,-4,-1,-2,0,-2,3,16
1584990361.930769,26,-8,-2,-3,-1,-1,0,7
1584990361.9512992,-19,4,-2,-5,-1,-3,-3,17
1584990361.9512992,-94,-15,-7,-1,-7,1,-10,-55
1584990361.9526596,18,-4,-5,-2,-5,-3,-1,-10
1584990361.9526596,-28,-3,-2,-1,1,1,-1,-7
1584990361.964894,20,-1,0,-3,-1,-1,-6,-48
1584990361.964894,-29,-3,-3,-4,-3,-1,-3,-3
1584990361.9737241,-12,-8,-4,-1,-4,-8,-6,-8
1584990361.9737241,27,2,-1,-2,2,4,8,17
1584990361.988783,1,12,7,2,2,5,5,15
1584990361.988783,44,-12,-4,3,-3,-4,-7,-43
1584990361.9906778,-51,-16,-8,-7,2,-3,-12,-19
1584990361.9906778,80,19,3,1,3,2,8,58
1584990362.0112033,37,17,1,5,6,16,23,81
1584990362.0112033,82,-4,3,-2,1,4,17,88
1584990362.0130477,-105,-23,-9,-10,-5,-11,-34,-128
1584990362.0130477,3,8,5,9,0,0,11,-11
1584990362.03417,45,-27,-15,-7,-5,-12,-34,-109
1584990362.03417,-128,15,8,3,4,6,5,17
1584990362.0356102,-128,40,29,16,13,-9,36,82
1584990362.0356102,101,-4,-2,3,2,4,2,19
1584990362.0490074,127,21,-11,-4,-1,0,26,127
1584990362.0490074,-128,-68,-22,-20,-13,-12,-71,-128
1584990362.0504687,59,30,10,9,11,28,35,127
1584990362.0504687,109,15,13,3,-3,-17,7,26
1584990362.0714793,-25,-32,-11,-3,2,19,-31,-112
1584990362.0714793,-128,-27,-14,-5,-12,-19,-5,67
1584990362.073919,36,1,-17,-10,-10,2,-6,-1
1584990362.073919,127,73,31,21,8,38,73,127
1584990362.0848827,-128,-77,-16,-9,-5,-12,-44,-128
1584990362.0848827,-128,39,21,9,4,68,21,126
1584990362.1011925,127,10,-8,-3,-17,-51,3,84
1584990362.1011925,-128,-12,-7,-4,0,-20,28,127
1584990362.108695,124,59,13,12,4,10,2,102
1584990362.108695,-22,24,-5,-9,-5,-20,-8,34
1584990362.1163702,-23,13,13,12,14,30,59,94
1584990362.1163702,15,-32,-11,-8,-9,-42,-36,-128
1584990362.1311707,20,20,10,7,3,5,17,127
1584990362.1311707,-128,-98,-30,-20,-14,-15,-46,-128
1584990362.1327713,-33,13,-5,-1,-2,10,49,16
1584990362.1327713,127,59,15,6,7,8,10,54
1584990362.153423,127,20,-4,0,-7,-17,48,70
1584990362.153423,-128,8,37,17,15,27,-14,22
1584990362.1610928,127,-100,-57,-31,-17,15,-55,-128
1584990362.1610928,-51,3,-1,-7,-9,-12,-28,-25
1584990362.1679864,-128,-29,15,6,4,-27,27,-9
1584990362.1679864,-96,-36,-31,-18,-15,0,14,-69
1584990362.174824,69,62,30,17,15,23,9,80
1584990362.174824,-128,-22,10,6,2,-36,12,-18
1584990362.1914423,127,17,2,7,8,19,59,44
1584990362.1914423,127,23,-2,-4,1,6,-23,-37
1584990362.1939635,-47,17,20,10,6,-18,44,127
1584990362.1939635,-128,-128,-63,-39,-31,-44,-128,-128
1584990362.2050717,127,64,13,9,11,8,-6,127
1584990362.2050717,-9,24,14,9,2,14,10,-5
1584990362.2137818,-128,-59,-18,-12,-10,-50,-42,-71
1584990362.2137818,-108,-51,-19,-7,1,9,16,-50
1584990362.2273526,-71,-22,0,1,2,13,-4,-92
1584990362.2273526,-119,-27,-17,-6,-9,-27,-56,-64
1584990362.2363274,127,42,2,0,2,-2,8,46
1584990362.2363274,-128,-73,17,6,6,-7,-27,96
1584990362.2512114,7,10,-7,1,2,1,25,10
1584990362.2512114,-104,-10,18,13,4,5,28,77
1584990362.252633,63,-42,-45,-29,-21,-12,-40,-128
1584990362.252633,41,23,11,6,7,-13,48,90
1584990362.2653415,-86,-14,22,11,9,4,22,-28
1584990362.2653415,127,-29,-32,-18,-14,-6,-27,63
1584990362.2737122,11,24,10,8,12,19,-5,76
1584990362.2737122,-128,13,23,5,-3,-28,8,-1
1584990362.2873282,117,6,-7,1,1,-19,9,-10
1584990362.2873282,127,1,-11,1,-8,28,-27,84
1584990362.2962406,-84,-27,-15,-12,-3,-3,1,-104
1584990362.2962406,-128,4,8,5,-2,-45,-4,112
1584990362.3111985,-128,-12,-1,-3,3,2,31,-128
1584990362.3111985,-66,16,3,-3,6,66,13,-3
1584990362.313033,91,38,18,10,0,-40,10,71
1584990362.313033,55,7,2,2,6,-1,-38,116
1584990362.3336847,-67,16,6,4,7,10,23,109
1584990362.3336847,-20,-3,-5,-7,-7,-4,-8,8
1584990362.3350606,-1,28,5,2,5,-2,34,-27
1584990362.3350606,127,-7,1,-2,-6,2,-22,-128
1584990362.3473423,74,-10,-10,-5,-1,-2,3,80
1584990362.3473423,119,51,31,21,8,3,24,113
1584990362.3563254,-128,-42,-12,-5,-3,4,-6,1
1584990362.3563254,-44,9,23,4,-1,7,-8,89
1584990362.385257,104,17,5,8,1,-12,36,123
1584990362.385257,127,3,-27,-14,-17,24,-30,-62
1584990362.401792,-109,2,4,5,3,10,59,127
1584990362.401792,-115,-26,-3,-3,-4,-11,-33,-116
1584990362.403005,96,26,0,7,5,20,7,-3
1584990362.403005,43,-9,-5,-1,1,20,22,-12
1584990362.4039369,-107,-37,-13,-9,-4,3,-10,-128
1584990362.4039369,39,16,15,9,3,7,-12,85
1584990362.408903,-128,-1,7,1,0,-3,5,-50
1584990362.408903,127,12,-6,-2,-5,-6,6,-2
1584990362.4104512,127,2,-6,-5,-5,1,-22,-11
1584990362.4104512,-128,-10,1,3,1,7,13,21
1584990362.4319282,-128,17,18,14,4,11,-5,-13
1584990362.4319282,98,22,7,4,5,0,19,63
1584990362.4333196,74,12,-2,-2,2,14,-22,24
1584990362.4333196,-7,7,6,5,1,0,2,-36
1584990362.453686,-2,18,16,12,10,15,27,127
1584990362.453686,56,-11,-21,-18,-13,-16,-22,36
1584990362.4550948,19,7,5,2,-4,-4,23,53
1584990362.4550948,-44,22,13,5,4,10,16,44
1584990362.4689462,-128,-75,-24,-12,-11,-6,-10,1
1584990362.4689462,54,22,-4,3,2,-16,14,31
1584990362.4707963,86,14,12,7,6,23,25,37
1584990362.4707963,-128,-36,-1,-1,2,14,-25,-114
1584990362.4913335,127,-6,-24,-14,-13,-17,-9,69
1584990362.4913335,2,19,11,5,3,3,7,63
1584990362.4932346,-81,6,7,7,8,50,30,-37
1584990362.4932346,-65,-10,-2,0,-1,6,1,48
1584990362.5141613,16,0,-8,-4,-7,-2,-8,16
1584990362.5141613,-3,8,3,3,3,6,1,53
1584990362.5162704,-43,-18,-4,-1,-1,3,11,31
1584990362.5162704,47,-4,-4,-3,-7,-18,-18,32
1584990362.5280364,49,-45,-26,-21,-14,-24,-56,-76
1584990362.5280364,-97,12,4,4,0,5,-4,-63
1584990362.534854,-29,0,13,8,9,13,29,31
1584990362.534854,10,-13,-10,-7,-2,-4,-6,-29
1584990362.551169,-4,8,5,4,3,2,0,25
1584990362.551169,12,1,-6,-4,-4,-6,-1,3
1584990362.552626,-4,7,0,-1,0,-3,2,-4
1584990362.552626,18,-9,-2,-4,1,0,3,2
1584990362.5736222,-8,10,7,5,1,3,2,-30
1584990362.5736222,-17,4,2,5,2,-1,1,62
1584990362.575243,61,1,-5,-7,-2,-6,-6,23
1584990362.575243,-26,10,3,-1,-2,3,6,24
1584990362.5961866,-6,-4,-4,-5,-1,-1,2,-11
1584990362.5961866,1,10,7,2,-4,3,0,15
1584990362.5979977,-26,-9,0,1,0,5,3,0
1584990362.5979977,-35,1,6,4,1,-4,11,4
1584990362.6118615,52,7,-6,-6,0,-1,-28,-15
1584990362.6118615,52,-6,-7,-5,-5,-8,-14,-5
1584990362.6134958,10,-4,1,0,-2,-3,-3,-8
1584990362.6134958,6,1,-3,1,2,1,3,-11
1584990362.6341476,-7,0,-2,-1,5,2,5,20
1584990362.6341476,15,-3,-4,-4,-2,-1,-9,-4
1584990362.635593,-39,-4,-4,-6,0,-2,-3,-18
1584990362.635593,6,-10,-2,-5,0,0,4,6
1584990362.6473706,-4,3,-4,-3,-3,-1,0,-1
1584990362.6473706,-15,8,0,6,3,3,5,-9
1584990362.6562538,6,7,14,-6,-3,1,-5,9
1584990362.6562538,14,-1,-7,3,-1,0,4,-2
1584990362.6714225,8,-1,0,0,-1,-3,-8,-7
1584990362.6714225,0,-3,3,-3,1,1,8,3
1584990362.6735933,1,-3,0,0,-1,-2,-7,-1
1584990362.6735933,-2,-2,-2,-2,0,-2,-11,-5
1584990362.693729,-1,0,-1,-2,1,0,28,-9
1584990362.693729,3,1,0,0,1,-3,-16,21
1584990362.6955047,1,-3,-1,1,0,-3,-15,-10
1584990362.6955047,-3,-1,3,0,-1,7,39,-7
1584990362.7073765,0,2,0,-2,2,2,-25,-11
1584990362.7073765,-2,2,1,2,-4,-6,-11,7
1584990362.7162576,1,-7,-3,-4,-1,-2,0,-7
1584990362.7162576,1,1,2,1,2,-3,-8,-1
1584990362.7311356,3,6,1,2,0,-3,4,2
1584990362.7311356,0,-3,1,0,-2,1,7,-2
1584990362.7327967,-1,-3,-2,0,-1,2,14,3
1584990362.7327967,-1,-5,-4,-1,1,0,-1,1
1584990362.753645,0,4,-2,-1,0,0,-12,-16
1584990362.753645,1,0,-3,-3,1,-1,-3,-2
1584990362.7551022,-2,-2,-1,0,-2,-1,-1,0
1584990362.7551022,-2,-4,4,3,-1,1,2,0
1584990362.768669,0,2,-3,-6,-3,0,5,4
1584990362.768669,-1,2,-3,-3,-1,0,-6,-3
1584990362.7763083,0,-4,-2,0,-1,-3,-4,0
1584990362.7763083,3,0,4,0,-1,1,1,0
1584990362.7913687,6,8,2,3,-1,0,2,4
1584990362.7913687,-3,-4,-2,-3,-3,-3,0,-8
1584990362.7934887,-3,-3,-3,1,0,0,2,2
1584990362.7934887,4,0,1,0,0,-1,5,9
1584990362.8137133,3,1,-2,2,3,-1,-3,-31
1584990362.8137133,1,0,-4,-3,-2,-2,-1,-5
1584990362.8156254,1,-5,-2,-3,-3,2,3,23
1584990362.8156254,0,1,4,3,0,0,-1,-5
1584990362.827356,0,0,2,-2,-2,-1,-4,-11
1584990362.827356,-1,1,-1,-1,-4,-1,-1,-4
1584990362.8362932,-2,-5,0,-1,-2,0,-2,-4
1584990362.8362932,2,2,-2,2,3,3,5,9
1584990362.8512154,-1,1,3,-3,-1,-1,-7,-11
1584990362.8512154,-3,-1,-2,2,-1,-1,-2,-8
1584990362.852624,0,0,-1,-1,-2,0,1,11
1584990362.852624,-1,3,2,1,-3,-1,0,3
1584990362.8737366,2,-5,2,1,0,0,-3,-1
1584990362.8737366,-5,1,-3,-1,-1,2,2,4
1584990362.8756537,-1,-5,0,-2,-2,2,-3,-9
1584990362.8756537,0,6,6,0,-2,0,-2,-14
1584990362.8873403,5,-8,-6,-6,-1,-5,4,4
1584990362.8873403,-6,0,-4,0,0,-3,-1,4
1584990362.8961833,-4,-7,0,-3,-1,-4,-11,-57
1584990362.8961833,2,0,4,2,-1,1,0,1
1584990362.9112191,3,-1,-4,1,1,-1,0,3
1584990362.9112191,4,0,2,-1,-2,-2,1,2
1584990362.912906,-1,0,1,1,4,1,0,-5
1584990362.912906,-2,-3,3,1,2,-4,-2,-5
1584990362.9341242,6,4,-1,-1,0,-1,0,23
1584990362.9341242,-3,0,-4,-3,0,1,-2,-33
1584990362.935575,-3,-7,-3,-5,-3,-1,-5,9
1584990362.935575,0,8,8,0,1,-1,1,6
1584990362.947304,-13,-8,-3,-4,-3,-1,-4,-47
1584990362.947304,11,7,-3,1,1,6,11,40
1584990362.9562352,-18,-5,2,0,-1,-1,-5,-69
1584990362.9562352,16,2,3,6,3,-4,-22,51
1584990362.9713526,13,7,8,7,6,14,34,88
1584990362.9713526,4,3,-2,0,-4,-3,-6,-5
1584990362.9731936,-2,1,-3,-3,1,-1,2,8
1584990362.9731936,-2,-4,-3,-1,0,-2,5,-7
1584990362.9928446,0,2,3,-1,0,1,1,-9
1584990362.9928446,-4,-3,-3,1,0,1,2,-6
1584990363.0012205,-1,-3,-3,-3,0,0,-2,-2
1584990363.0012205,-1,-2,1,-3,2,-1,-3,-1
1584990363.007355,-2,0,-3,2,-5,-1,-3,-2
1584990363.007355,1,-2,-5,2,2,-2,-2,1
1584990363.0161903,-1,-1,2,0,-1,0,0,-1
1584990363.0161903,3,1,3,-4,1,1,0,2
1584990363.03112,-3,3,-2,0,1,-2,-3,-1
1584990363.03112,0,-5,-6,1,-2,2,0,-8
1584990363.0326002,-1,-6,-2,-2,-2,-1,1,15
1584990363.0326002,-1,1,-1,1,1,0,-2,3
1584990363.053683,9,-1,1,-2,-7,-1,0,3
1584990363.053683,-14,-7,1,-1,-1,-2,-2,15
1584990363.055056,0,3,3,-2,1,-3,-4,-13
1584990363.055056,-3,-1,-2,-3,-1,-1,-6,10
1584990363.0673518,2,2,-5,-1,-3,-3,0,5
1584990363.0673518,1,-4,-2,1,-2,0,-5,-11
1584990363.0761747,-10,-6,1,-2,-3,-3,-13,-47
1584990363.0761747,-4,-5,-5,-2,2,0,-1,4
1584990363.0913413,3,8,7,0,-2,-1,0,0
1584990363.0913413,0,3,2,3,0,-5,3,1
1584990363.093458,0,-1,2,2,2,0,0,-14
1584990363.093458,-7,-4,1,-4,0,-1,1,-1
1584990363.1136591,-2,-1,-3,2,0,0,1,-2
1584990363.1136591,0,1,1,-1,-4,1,-4,1
1584990363.1154308,-6,-4,-2,-4,-4,-1,3,-9
1584990363.1154308,4,0,2,1,-4,1,-4,2
1584990363.1273246,2,-5,-5,-2,1,3,1,5
1584990363.1273246,1,6,3,3,0,-5,-3,5
1584990363.136347,0,-2,3,2,3,-2,-2,-8
1584990363.136347,-7,-7,-4,0,4,0,-4,-11
1584990363.1515563,3,3,0,-3,-1,-3,0,11
1584990363.1515563,-6,2,-1,-1,1,0,0,-19
1584990363.1549306,-2,-4,0,-1,-1,-3,-1,5
1584990363.1549306,-5,-2,1,-1,-2,1,-5,-4
1584990363.1740668,4,5,4,0,-2,0,2,19
1584990363.1740668,-1,4,-3,2,1,4,1,-2
1584990363.1761086,2,-4,7,3,2,-1,-1,0
1584990363.1761086,1,-6,-4,-1,-1,-1,1,-6
1584990363.1873527,0,1,-5,-4,-1,0,2,-4
1584990363.1873527,-4,0,1,2,-1,-1,2,6
1584990363.1961856,-3,-4,0,2,-3,0,2,-1
1584990363.1961856,2,-3,0,-2,2,1,-1,0
1584990363.2115848,0,-1,-1,-2,-2,-6,-1,-2
1584990363.2115848,-5,-1,-1,1,-1,-2,2,1
1584990363.2140012,5,-6,-6,-3,1,1,7,16
1584990363.2140012,-2,2,4,-2,0,2,0,-7
1584990363.2341015,-3,5,-1,0,-2,3,-1,2
1584990363.2341015,2,-5,-1,0,1,0,2,1
1584990363.236054,-3,-2,4,4,1,1,-2,-9
1584990363.236054,1,6,2,2,3,1,3,-2
1584990363.256204,1,-1,-3,-3,-6,0,-2,-8
1584990363.256204,-5,-4,-8,-4,-3,2,-1,-45
1584990363.25815,-3,-4,0,5,2,-2,1,-4
1584990363.25815,1,8,7,-1,-1,-2,0,3
1584990363.2715578,-2,1,-4,-3,-1,-1,-4,-3
1584990363.2715578,-4,-4,-6,-3,-3,0,3,12
1584990363.2734416,1,-7,-1,-1,0,-1,-4,1
1584990363.2734416,2,-7,2,-2,1,-2,0,-2
1584990363.293673,-4,9,4,0,3,-1,-3,-5
1584990363.293673,-2,-1,0,0,0,-2,2,1
1584990363.2955868,-6,-5,-4,-3,-2,-2,1,-27
1584990363.2955868,1,-4,-1,-2,-5,-2,-2,1
1584990363.316193,2,1,0,1,-8,-6,5,0
1584990363.316193,-2,2,0,-3,-1,-3,-3,2
1584990363.3175414,2,-5,2,-2,-3,-3,0,6
1584990363.3175414,-2,-5,-3,1,-1,2,2,-3
1584990363.3311424,1,2,-4,3,0,2,0,-1
1584990363.3311424,-2,2,2,0,1,3,1,2
1584990363.3328116,-2,-4,-2,0,-1,1,-3,-22
1584990363.3328116,2,-3,2,1,-3,0,3,1
1584990363.3536408,-1,1,-6,-3,0,-1,-3,-12
1584990363.3536408,1,6,-1,-1,2,-1,0,13
1584990363.3551092,-5,-8,-1,0,-1,1,-2,0
1584990363.3551092,1,-2,3,-1,4,-2,0,-1
1584990363.3761635,3,5,2,2,2,-2,-4,-2
1584990363.3761635,-3,-3,-1,0,-2,0,-1,-4
1584990363.3780584,-1,-4,-1,-4,-1,0,-1,-1
1584990363.3780584,-1,-2,4,1,0,5,-3,1
1584990363.3911982,-7,-4,-6,-3,-1,-2,2,-4
1584990363.3911982,-3,0,-2,-3,-2,1,0,7
1584990363.3929496,-5,-5,-1,-2,1,-2,-3,-22
1584990363.3929496,1,-3,0,0,-1,-1,4,6
1584990363.4137049,-4,-5,-4,-3,-1,0,3,1
1584990363.4137049,0,-4,-4,1,-2,0,-3,4
1584990363.4159167,-3,0,1,-2,0,-1,2,-2
1584990363.4159167,0,-2,-1,-3,1,2,-7,-10
1584990363.4363465,-7,-1,-2,-1,0,-1,-5,0
1584990363.4363465,-2,-5,0,-1,-2,0,-3,9
1584990363.4381332,-1,-4,-2,-1,-3,-3,7,-1
1584990363.4381332,3,2,3,-1,-1,-1,3,-3
1584990363.4511719,3,3,-2,0,0,-2,-1,-8
1584990363.4511719,-5,0,-2,0,-1,0,0,1
1584990363.4525855,-1,-2,4,1,0,-2,-1,0
1584990363.4525855,1,-3,0,0,1,-2,-1,-5
1584990363.4733129,-2,2,2,0,2,0,-1,0
1584990363.4733129,-1,0,-6,-2,-2,-2,0,-1
1584990363.4887745,0,-6,0,-2,-3,0,-4,-1
1584990363.4887745,-4,-4,0,1,-2,0,2,11
1584990363.4961736,1,5,0,1,-2,0,3,1
1584990363.4961736,0,2,6,2,2,-3,1,-3
1584990363.4979782,-3,-1,-3,-2,1,0,-1,0
1584990363.4979782,0,-3,-3,-2,0,0,1,-9
1584990363.509784,2,-6,-3,2,-3,-1,1,3
1584990363.509784,-3,-4,0,-1,-1,0,2,-5
1584990363.5186882,1,5,1,2,3,-3,0,-10
1584990363.5186882,3,5,4,-3,-4,-1,3,6
1584990363.5336092,0,-1,-2,-3,-2,-1,-1,2
1584990363.5336092,-2,-4,-2,1,-2,-1,2,2
1584990363.5350761,0,-3,1,-2,-1,-1,-5,-7
1584990363.5350761,-1,-1,0,1,0,-2,2,2
1584990363.5563512,-3,-3,-2,0,4,-1,1,0
1584990363.5563512,-1,-3,0,0,-2,-2,-2,-3
1584990363.558508,0,-4,0,-2,-2,2,0,1
1584990363.558508,0,-6,2,0,0,0,-2,-1
1584990363.569894,2,7,3,3,-2,-1,-3,-3
1584990363.569894,-2,-1,-3,-1,1,1,1,0
1584990363.5793471,0,-3,-1,0,-2,1,1,5
1584990363.5793471,-4,-2,-1,-3,-3,0,1,-4
1584990363.593625,1,1,-2,-1,1,-1,-4,-1
1584990363.593625,8,5,2,2,2,1,3,15
1584990363.5954916,0,-3,-4,-3,2,0,-5,-4
1584990363.5954916,-3,-3,-3,-3,2,-2,-4,-7
1584990363.616162,1,3,-2,-2,0,2,3,2
1584990363.616162,0,-3,1,-2,-1,1,1,2
1584990363.6175938,-3,-6,-3,-2,-3,1,2,5
1584990363.6175938,-1,2,-3,-1,-3,-2,-2,0
1584990363.6297922,16,5,-3,-7,1,-3,4,14
1584990363.6297922,2,1,2,0,0,-1,0,2
1584990363.638699,-39,-6,5,0,-2,-1,1,-5
1584990363.638699,19,0,-2,-1,-2,0,-1,0
1584990363.653644,33,1,-2,-2,2,0,2,4
1584990363.653644,-53,-7,-1,-2,-3,-3,-6,-15
1584990363.6551013,4,-1,2,-1,-1,1,-5,3
1584990363.6551013,22,3,0,-4,-4,-1,0,12
1584990363.676154,0,-1,-1,-1,1,2,-1,-2
1584990363.676154,11,0,1,-4,-2,1,0,6
1584990363.678001,2,-1,0,-2,-3,1,-1,-6
1584990363.678001,-14,-2,-2,-2,2,3,-2,-1
1584990363.6899073,12,4,0,0,-4,1,-1,2
1584990363.6899073,-33,-4,-4,-1,0,0,-2,-16
1584990363.6986177,2,-3,1,-2,1,-2,2,6
1584990363.6986177,-3,-1,-2,-1,-1,-4,-4,-6
1584990363.7134101,2,5,5,2,0,-2,-2,3
1584990363.7134101,0,-2,-6,-3,-3,0,1,-2
1584990363.7197762,1,-5,-1,0,-3,-3,0,-2
1584990363.7197762,1,-1,-1,1,1,0,-1,1
1584990363.7362795,2,3,-2,-3,0,0,-2,2
1584990363.7362795,-2,0,0,-3,0,0,-3,-3
1584990363.7380538,-3,-3,-2,-2,-1,-1,-3,-5
1584990363.7380538,5,-3,0,-1,-3,-1,3,4
1584990363.7497966,3,1,-1,0,-1,3,0,4
1584990363.7497966,5,3,-3,0,-5,0,1,6
1584990363.7647505,-4,-6,2,0,-1,-2,-4,-2
1584990363.7647505,-7,-3,-2,2,-3,-1,0,-1
1584990363.7736177,4,5,-1,-1,-4,-2,-1,3
1584990363.7736177,3,0,1,1,-3,-1,-1,2
1584990363.7754261,0,1,4,1,0,-3,-2,-13
1584990363.7754261,17,2,0,-1,0,-3,-1,5
1584990363.79617,-17,-1,-2,-1,-1,-1,3,4
1584990363.79617,-11,-7,-3,-1,-3,-1,-2,-6
1584990363.798022,6,-1,0,0,0,1,-2,0
1584990363.798022,8,4,-1,0,4,2,1,7
1584990363.8098104,2,3,3,7,3,2,1,3
1584990363.8098104,-28,-6,-3,-3,-1,0,-5,-7
1584990363.8357127,20,-1,-6,-4,-3,-1,0,-3
1584990363.8357127,-15,-1,2,-1,4,2,1,0
1584990363.8370824,-24,1,-1,-1,1,2,-2,-9
1584990363.8370824,29,-6,-4,-7,-5,-4,-4,5
1584990363.839753,29,-3,-1,0,1,1,-1,-3
1584990363.839753,-36,-2,-1,-2,-2,-2,-2,-4
1584990363.8563197,-23,1,-2,1,-5,-4,-4,-25
1584990363.8563197,60,11,6,3,1,-1,5,21
1584990363.8582065,-30,3,1,0,0,3,2,13
1584990363.8582065,-33,-9,-5,1,2,-3,-4,-24
1584990363.8699455,-14,10,7,3,1,2,5,15
1584990363.8699455,-39,-15,-8,-5,-2,-8,-5,-27
1584990363.8787105,26,2,3,2,1,2,6,15
1584990363.8787105,-17,-8,2,1,-3,-2,-9,-34
1584990363.893634,50,10,3,1,1,-1,3,15
1584990363.893634,-128,-25,-13,-4,-2,-3,-12,-54
1584990363.8955553,21,15,2,2,0,4,10,30
1584990363.8955553,89,-23,-13,-9,-6,-1,-7,10
1584990363.916147,-84,-12,-1,-3,-2,-5,-7,-33
1584990363.916147,-14,-2,1,-1,-2,1,1,41
1584990363.9175587,30,4,3,1,-1,-2,-1,-23
1584990363.9175587,-20,3,5,4,0,0,4,12
1584990363.9297967,-6,8,3,6,5,-1,8,27
1584990363.9297967,40,5,0,3,-4,-6,0,-20
1584990363.93863,21,-6,-9,-4,-1,0,1,22
1584990363.93863,5,0,-3,-5,2,0,3,1
1584990363.9532216,0,-1,-3,-1,-3,-1,-6,3
1584990363.9532216,3,6,2,2,0,0,2,18
1584990363.961168,17,0,3,1,3,0,-1,-13
1584990363.961168,-70,7,3,0,1,3,4,5
1584990363.9761808,72,7,0,0,3,3,-3,-25
1584990363.9761808,-117,-24,-3,1,1,-4,-8,-70
1584990363.9780104,127,-4,-5,-6,-5,-5,-1,55
1584990363.9780104,109,7,2,3,0,3,0,-5
1584990363.9899569,-69,-22,-16,-11,-12,-8,-8,-49
1584990363.9899569,-39,2,2,1,-3,-1,-1,15
1584990363.9986522,-1,13,4,6,2,-2,7,6
1584990363.9986522,-45,4,10,5,9,7,9,5
1584990364.013642,41,13,-5,-5,-6,-5,-2,16
1584990364.013642,91,18,10,6,6,1,5,-5
1584990364.0154095,-128,-29,-9,-5,-2,6,0,5
1584990364.0154095,111,7,-5,1,-3,-1,-5,-21
1584990364.0436213,-128,11,11,9,4,1,4,-31
1584990364.0436213,124,-47,-25,-17,-9,-9,-9,41
1584990364.0453634,9,-8,-4,-4,-2,-4,-6,-52
1584990364.0453634,-52,23,17,11,7,6,8,28
1584990364.0497894,-43,13,2,2,-1,2,13,64
1584990364.0497894,49,-11,-8,-3,-6,-8,-17,-13
1584990364.0586796,37,49,19,13,7,15,41,127
1584990364.0586796,-71,-36,-10,-11,-6,-11,-48,-94
1584990364.0816355,127,35,21,21,12,21,43,127
1584990364.0816355,-128,-50,-27,-22,-12,-16,-36,-128
1584990364.0839334,-128,56,25,18,9,15,36,112
1584990364.0839334,-74,-22,0,-8,1,-5,-5,61
1584990364.0959604,127,16,-14,-3,-10,-13,-34,-84
1584990364.0959604,127,0,10,10,9,22,73,127
1584990364.1023211,-52,36,0,-8,-3,1,1,-57
1584990364.1023211,-128,0,7,4,2,0,-4,127
1584990364.1097424,127,14,-9,6,3,9,30,127
1584990364.1097424,-128,-37,14,10,8,11,21,-49
1584990364.1186147,127,-57,-47,-23,-16,-19,-37,-66
1584990364.1186147,41,73,56,29,22,28,68,94
1584990364.1334877,-53,-72,-64,-31,-23,-25,-30,32
1584990364.1334877,127,127,71,25,13,13,48,127
1584990364.14121,118,-128,-44,-2,2,1,28,-128
1584990364.14121,33,122,44,-5,-5,-6,8,-76
1584990364.15628,-128,34,25,9,10,11,20,78
1584990364.15628,84,-128,-64,-21,-15,-32,-124,-128
1584990364.158036,127,110,15,13,9,16,57,127
1584990364.158036,123,-28,-1,-8,1,-10,14,-128
1584990364.185196,127,-47,-56,-31,-34,-47,-109,-128
1584990364.185196,-99,34,25,15,16,26,70,127
1584990364.194279,-128,-73,-51,-38,-34,-53,-117,9
1584990364.194279,52,37,6,12,9,28,42,127
1584990364.1954663,-16,-91,-64,-33,-29,-25,-5,127
1584990364.1954663,127,42,15,13,13,22,27,65
1584990364.2011025,-128,-21,10,0,-3,-11,-14,-128
1584990364.2011025,127,63,9,11,13,-20,53,-17
1584990364.2161658,94,-96,-62,-36,-31,-46,-128,-128
1584990364.2161658,127,71,2,-1,3,16,91,127
1584990364.2175975,-128,-124,-33,-23,-8,20,-41,-128
1584990364.2175975,-67,63,35,25,22,19,85,127
1584990364.238812,41,-50,-43,-21,-18,12,-30,-128
1584990364.238812,127,0,-38,-30,-32,-49,-75,-86
1584990364.2409158,-29,-3,13,8,5,-16,29,113
1584990364.2409158,-128,-13,-17,-11,-8,-14,-63,-128
1584990364.2522833,92,-116,-44,-24,-27,-13,-61,-128
1584990364.2522833,-128,0,16,11,14,41,14,-128
1584990364.2611213,49,4,-2,-6,-10,3,-23,78
1584990364.2611213,127,72,15,5,9,11,79,127
1584990364.2778897,84,-64,-5,-3,10,-7,-45,-128
1584990364.2778897,122,6,-10,-4,3,-1,41,55
1584990364.2796302,-128,16,8,-1,-8,15,5,94
1584990364.2796302,-128,21,30,14,7,-7,26,10
1584990364.2986405,-128,6,16,12,9,11,16,81
1584990364.2986405,37,-128,-70,-37,-27,-54,-81,-128
1584990364.300445,21,37,16,8,4,12,59,105
1584990364.300445,-43,2,9,5,10,15,-29,-44
1584990364.321649,37,45,19,13,5,7,10,-72
1584990364.321649,23,55,13,8,5,49,35,-9
1584990364.3234367,-38,-27,-12,-16,-15,-47,-72,-128
1584990364.3234367,-26,-28,-22,-10,-6,-5,-5,127
1584990364.336292,8,3,-11,-9,-13,-26,-40,-64
1584990364.336292,-128,25,50,33,24,21,68,127
1584990364.3380075,30,-109,-63,-40,-29,-55,-82,-128
1584990364.3380075,16,39,7,5,10,32,35,53
1584990364.3589144,-6,18,16,8,8,60,22,-29
1584990364.3589144,-3,-16,-1,2,6,60,21,-72
1584990364.3609538,-66,59,32,19,12,-7,35,127
1584990364.3609538,-67,-27,-22,-13,-14,-27,-27,-56
1584990364.3724601,87,48,20,16,4,-7,35,54
1584990364.3724601,-102,5,8,4,0,-1,-34,-128
1584990364.3811715,-128,-11,6,3,4,6,0,-8
1584990364.3811715,-3,-31,-12,-7,-1,-3,5,-39
1584990364.3961651,-13,25,1,-3,-3,-3,-31,-22
1584990364.3961651,35,-4,-1,-2,1,7,30,-35
1584990364.3980083,80,11,8,7,5,8,18,-29
1584990364.3980083,68,-12,-14,-8,-2,-14,-19,-49
1584990364.4253716,-30,3,-3,-5,0,3,16,1
1584990364.4253716,12,5,1,3,3,3,-1,-78
1584990364.4417942,-10,-19,1,1,0,-2,-7,-96
1584990364.4417942,-128,-5,13,7,7,4,8,-18
1584990364.4435663,-112,-29,-6,-4,0,4,7,-37
1584990364.4435663,81,11,-13,-9,-8,-8,-17,-8
1584990364.4452264,114,12,-1,2,-1,19,19,85
1584990364.4452264,-95,-11,2,1,-1,13,-4,-59
1584990364.456208,-34,7,1,2,0,-6,7,28
1584990364.456208,72,9,1,1,1,0,5,63
1584990364.4580119,-48,-30,-7,-6,-2,6,-11,-25
1584990364.4580119,15,5,-1,-5,-8,-4,4,52
1584990364.4861324,1,6,3,2,6,17,8,35
1584990364.4861324,-29,-8,-4,-7,-3,-1,-9,-17
1584990364.4879465,43,20,9,6,5,4,9,69
1584990364.4879465,25,-1,-2,0,-4,-4,0,33
1584990364.4930475,106,15,11,2,3,1,-10,-42
1584990364.4930475,69,-27,-23,-8,-12,-11,-24,-66
1584990364.5011764,50,-23,-16,-8,-7,-6,-12,-11
1584990364.5011764,-25,8,1,0,2,2,0,-1
1584990364.5161295,-11,-4,-2,-3,-2,0,4,-4
1584990364.5161295,-16,-6,-4,-2,-4,-2,-8,4
1584990364.517559,-53,-6,1,3,-2,-1,2,17
1584990364.517559,-9,-1,-3,-6,-4,-5,-12,-45
1584990364.5388234,-21,4,0,0,-2,-3,3,13
1584990364.5388234,-27,-3,0,1,-1,1,-3,-16
1584990364.5409696,1,-7,-5,-4,-1,-3,-5,12
1584990364.5409696,2,-1,-5,-1,-1,0,-4,3
1584990364.5522077,-8,2,2,3,5,-1,1,-2
1584990364.5522077,-6,-4,2,-1,-2,-5,-4,-4
1584990364.5611,-9,-8,-3,-2,0,-1,-9,-56
1584990364.5611,78,13,7,3,-1,2,1,1
1584990364.5771842,-83,-30,-11,-6,-4,-3,-12,-21
1584990364.5771842,59,-9,-8,2,-1,-2,3,-20
1584990364.5823169,73,1,1,-4,1,0,7,21
1584990364.5823169,-37,-4,-2,-3,0,4,0,8
1584990364.5991132,0,-1,0,2,1,-1,-1,12
1584990364.5991132,17,4,1,1,-2,1,5,11
1584990364.6009011,-34,-13,-3,-1,-2,-3,-3,-23
1584990364.6009011,-16,2,2,0,2,1,4,-15
1584990364.6122725,-15,-11,-4,-2,-1,-3,-1,-18
1584990364.6122725,4,1,1,2,3,-2,-3,-8
1584990364.6211383,-1,-2,0,-2,-3,-1,3,12
1584990364.6211383,5,3,2,0,-1,1,1,12
1584990364.6361504,4,-1,0,-2,2,0,3,-24
1584990364.6361504,2,-1,-5,-1,-1,-3,-11,-4
1584990364.6375666,3,0,3,1,3,-1,4,-3
1584990364.6375666,6,2,1,0,1,-1,7,29
1584990364.658817,3,0,0,0,0,-1,6,25
1584990364.658817,2,-1,-1,-3,-2,0,1,20
1584990364.6608593,0,-3,3,0,0,-1,-1,-1
1584990364.6608593,0,0,0,-2,1,0,-2,-1
1584990364.6735396,1,-1,2,3,2,-3,-1,-2
1584990364.6735396,3,-7,-2,-2,0,2,5,6
1584990364.6812377,2,-4,-3,1,-2,-1,-5,-9
1584990364.6812377,4,7,9,7,3,-1,1,-2
1584990364.6957433,-2,1,-1,1,4,2,9,6
1584990364.6957433,0,-5,-2,-5,-1,0,-2,6
1584990364.70236,-4,-5,-4,0,-5,-2,5,0
1584990364.70236,6,8,4,2,-2,-1,2,-11
1584990364.7186058,-13,-2,-4,-7,0,1,3,52
1584990364.7186058,21,-3,-1,2,5,-1,-7,-14
1584990364.720087,-26,0,2,0,3,-2,-6,-3
1584990364.720087,0,-3,-2,-1,1,-2,7,-21
1584990364.741119,7,6,-4,-1,-3,0,2,9
1584990364.741119,7,6,-1,-5,-1,1,2,35
1584990364.7425687,-18,-6,0,2,0,-1,-1,-6
1584990364.7425687,5,1,5,-4,-1,-2,9,-12
1584990364.7562506,-5,1,-3,-3,-1,-4,0,-8
1584990364.7562506,-3,-6,1,-3,-1,0,-1,-23
1584990364.7579849,-5,0,0,-2,-2,-3,-19,-106
1584990364.7579849,-1,0,-4,0,-2,2,1,-5
1584990364.778601,1,1,-1,-2,-3,-1,3,24
1584990364.778601,-7,-6,-1,-1,-3,-7,-16,-37
1584990364.7803717,-3,-5,0,3,-5,-4,-28,-46
1584990364.7803717,0,2,4,1,2,3,-6,-16
1584990364.7924588,0,0,0,3,2,-5,0,-6
1584990364.7924588,-3,-1,-2,-2,1,-1,-2,-4
1584990364.801152,-2,-1,-1,-3,2,1,-3,-18
1584990364.801152,2,3,2,2,2,2,5,3
1584990364.8166273,-1,1,2,2,-3,-1,0,-49
1584990364.8166273,-5,-7,-10,-2,-1,1,1,4
1584990364.8183842,0,-3,-3,-7,-2,-2,0,4
1584990364.8183842,4,1,3,5,0,1,5,-48
1584990364.8386133,5,3,5,-1,-3,0,-10,-51
1584990364.8386133,-19,-10,0,0,0,-1,-6,-8
1584990364.8400478,29,5,2,1,2,0,4,5
1584990364.8400478,2,-8,-7,-3,-4,-2,1,22
1584990364.852271,-18,-3,0,4,-3,-4,-6,-3
1584990364.852271,4,-5,-3,1,0,1,-3,0
1584990364.8611472,14,0,0,2,-1,2,-3,-1
1584990364.8611472,1,2,0,0,-3,-3,2,1
1584990364.88363,0,-5,-2,-1,-1,0,-9,-16
1584990364.88363,21,0,-1,-1,4,0,0,7
1584990364.8850431,-58,-9,-3,1,0,0,-5,-8
1584990364.8850431,3,2,1,0,1,-2,2,45
1584990364.8985946,10,1,2,2,-4,-2,1,-3
1584990364.8985946,2,-4,-3,-4,-2,-5,-4,-17
1584990364.9002411,5,0,3,3,1,4,3,1
1584990364.9002411,1,-1,-3,1,0,0,2,7
1584990364.912314,0,-1,-4,0,2,0,-4,9
1584990364.912314,0,-3,-1,-2,2,0,0,-11
1584990364.9286668,-4,-1,2,-3,0,-1,4,-6
1584990364.9286668,6,3,0,-1,-4,0,3,22
1584990364.9361238,-8,-2,-2,1,-1,0,1,3
1584990364.9361238,6,-2,1,0,3,0,4,-6
1584990364.9375896,-7,-9,-4,-3,1,-3,-13,-55
1584990364.9375896,-4,1,5,-1,2,-3,1,26
1584990364.9588335,3,0,4,4,-1,0,-4,-1
1584990364.9588335,11,-1,-5,-5,-2,-2,3,9
1584990364.9609609,-3,-5,-4,-1,1,-1,-3,-8
1584990364.9609609,6,1,-4,-4,-2,-2,0,0
1584990364.9728646,-7,3,-2,-2,-1,1,2,9
1584990364.9728646,4,-2,-2,-4,0,0,-4,-9
1584990364.9811115,4,0,3,2,2,0,8,0
1584990364.9811115,6,-1,-3,-2,-3,1,-10,-1
1584990364.996154,1,1,0,-1,1,-4,0,-4
1584990364.996154,-9,0,2,1,1,-2,0,0
1584990364.9979484,1,-4,-1,-5,-2,2,-3,-8
1584990364.9979484,2,-4,0,3,1,1,6,3
1584990365.0261736,2,0,-2,2,1,0,3,2
1584990365.0261736,4,-2,3,-1,1,1,1,-9
1584990365.0279927,-7,-4,-2,2,2,1,3,13
1584990365.0279927,5,-1,-4,-1,-2,-3,-2,34
1584990365.032268,-3,3,2,3,1,2,-3,-26
1584990365.032268,4,-1,-4,-3,-1,1,1,-8
1584990365.0411432,-29,-6,-1,-2,2,3,10,2
1584990365.0411432,6,2,-3,0,2,-1,-5,-8
1584990365.0567212,7,2,0,2,1,2,3,11
1584990365.0567212,4,-5,-3,-4,2,-1,0,-1
1584990365.0624213,-33,-1,8,1,1,0,-3,-13
1584990365.0624213,-43,-1,-5,-5,0,-3,-3,-8
1584990365.0787954,7,2,-2,0,-2,-1,4,21
1584990365.0787954,7,-3,0,0,1,-1,-16,-19
1584990365.0807395,7,-2,-3,-3,-4,-2,1,2
1584990365.0807395,-9,-1,-5,-1,-5,-2,0,-8
1584990365.100413,4,0,1,1,-4,-2,3,1
1584990365.100413,-1,-3,-4,0,1,1,-1,-4
1584990365.1017308,1,-2,3,3,-1,1,-1,0
1584990365.1017308,4,0,-2,-2,-1,-1,0,10
1584990365.1167717,-3,2,0,1,2,0,0,4
1584990365.1167717,1,-4,-3,-3,-4,-3,0,-12
1584990365.1180558,-10,-6,1,-2,2,-1,-6,7
1584990365.1180558,8,-1,-1,-1,0,-4,0,0
1584990365.1378937,10,1,1,-1,1,0,4,6
1584990365.1378937,-24,1,1,0,2,-2,-2,-12
1584990365.1387382,3,-2,-6,-4,1,0,1,6
1584990365.1387382,15,1,1,1,-3,1,-2,-1
1584990365.1626244,7,3,6,1,1,1,3,2
1584990365.1626244,11,5,2,2,0,0,0,13
1584990365.1679282,29,-2,-3,-3,2,2,8,13
1584990365.1679282,-35,-10,-3,-1,-1,0,-8,-40
1584990365.176209,-23,2,-2,4,-5,-4,-5,-8
1584990365.176209,-6,-1,0,-1,-6,1,-1,30
1584990365.1773903,16,5,6,0,-1,-1,-5,-32
1584990365.1773903,9,2,-3,-2,0,-4,-1,5
1584990365.2060852,-15,-2,-4,0,0,-1,1,0
1584990365.2060852,2,-4,0,2,-3,0,0,1
1584990365.210506,-1,-2,-2,-5,1,1,0,2
1584990365.210506,-1,-2,3,1,1,-2,-2,1
1584990365.220345,-1,-3,1,2,2,-4,-5,-12
1584990365.220345,0,-4,0,-4,-2,0,-1,-8
1584990365.2212129,-1,-1,-2,0,-3,0,-2,-3
1584990365.2212129,0,3,-2,-1,1,-1,2,1
1584990365.2356093,2,6,6,4,2,-4,1,-6
1584990365.2356093,-3,-1,-2,-1,-1,-1,-8,-9
1584990365.236675,0,3,3,-1,-2,1,5,22
1584990365.236675,-3,1,-3,-4,-1,2,1,14
1584990365.2579453,5,0,0,3,3,1,1,-11
1584990365.2579453,5,0,0,3,3,0,-1,-5
1584990365.2593367,-7,-4,-7,0,1,-2,2,35
1584990365.2593367,7,3,0,-1,0,-1,0,3
1584990365.28041,18,-5,-1,0,-3,-1,-2,8
1584990365.28041,-53,-8,1,-1,1,-3,1,-8
1584990365.2817357,11,4,6,3,1,0,2,2
1584990365.2817357,9,2,3,0,0,1,2,-4
1584990365.296763,7,0,2,1,-3,0,0,-6
1584990365.296763,5,0,1,-2,-1,1,1,18
1584990365.297987,6,-4,-5,-4,-3,-2,-5,4
1584990365.297987,-15,7,6,5,1,0,-1,2
1584990365.3179176,9,-2,-1,1,0,0,2,-4
1584990365.3179176,-22,-2,-3,0,0,-1,-5,-3
1584990365.319252,4,-1,-1,2,0,0,3,-16
1584990365.319252,3,2,-3,-6,-2,2,-5,-11
1584990365.3403866,1,3,-1,-1,-1,-1,0,26
1584990365.3403866,2,-3,5,1,2,1,8,-3
1584990365.34128,12,1,-2,-2,1,-3,0,-3
1584990365.34128,-29,-4,1,1,0,-3,-2,-2
1584990365.3554056,2,1,-3,1,0,0,1,6
1584990365.3554056,6,-2,0,-4,2,2,-2,-3
1584990365.3566656,2,-1,-4,-3,4,4,1,3
1584990365.3566656,-3,-4,-1,-2,-2,-1,-8,-8
1584990365.3933349,6,0,6,-2,-1,0,-2,-7
1584990365.3933349,21,-3,1,-1,-2,0,-1,-2
1584990365.3946185,-65,-11,-8,2,1,-2,-7,-20
1584990365.3946185,-9,6,5,-4,-1,1,-3,-20
1584990365.401523,27,3,-1,3,1,2,4,6
1584990365.401523,22,2,-1,-3,0,0,1,4
1584990365.40793,-48,-5,0,1,-1,-2,-2,-13
1584990365.40793,28,6,-1,0,2,-2,2,8
1584990365.4154406,8,4,0,3,2,-2,1,5
1584990365.4154406,-15,-7,0,-2,-3,-3,-4,5
1584990365.4164402,-27,-9,-2,-1,-1,-3,-2,-6
1584990365.4164402,16,3,-3,4,0,1,-1,4
1584990365.4383636,12,2,3,-4,-3,-2,0,5
1584990365.4383636,3,-2,4,3,-1,-2,-3,-6
1584990365.439234,2,0,2,1,1,1,1,13
1584990365.439234,0,0,-6,-4,2,1,-1,7
1584990365.4603999,-3,-4,-3,-1,1,-1,3,-1
1584990365.4603999,-4,-7,-2,-1,-1,-3,-4,-3
1584990365.4616492,-1,0,-3,2,-2,2,-2,2
1584990365.4616492,9,2,-1,-1,0,1,4,25
1584990365.4835865,-21,-2,2,0,2,1,-2,-11
1584990365.4835865,9,-2,-4,-3,2,-1,-2,-1
1584990365.484431,-17,-3,0,2,2,1,3,4
1584990365.484431,61,-1,-5,-3,-2,-2,-1,16
1584990365.4979036,-22,-3,3,0,2,0,1,-4
1584990365.4979036,-30,-3,1,-3,1,2,-5,-28
1584990365.4991193,12,-7,-1,2,1,0,2,4
1584990365.4991193,2,5,4,3,0,2,-7,6
1584990365.5286357,-23,-2,0,-2,1,0,3,-38
1584990365.5286357,-4,-1,-4,1,4,-1,12,4
1584990365.5301704,12,0,1,-3,-1,-4,-9,22
1584990365.5301704,3,-8,-5,-6,-2,-4,1,-5
1584990365.5355325,-13,4,1,8,-3,-2,1,8
1584990365.5355325,7,1,3,-2,-4,1,0,2
1584990365.5364752,-8,-3,-1,-1,4,4,2,-11
1584990365.5364752,18,4,1,-3,-5,0,-5,-7
1584990365.5579495,-8,7,2,3,-2,3,8,40
1584990365.5579495,14,-11,-6,-3,-5,-3,-6,-30
1584990365.559815,28,-4,-3,-1,-4,-5,3,22
1584990365.559815,-20,1,-2,-3,-1,0,-4,16
1584990365.5804014,-6,3,0,3,-3,-3,-1,-33
1584990365.5804014,4,-4,0,1,1,3,0,-16
1584990365.5818338,-7,-5,1,0,-1,-4,0,7
1584990365.5818338,-1,14,12,6,5,2,1,7
1584990365.5955174,-10,-17,-15,-6,-4,-4,-12,-36
1584990365.5955174,59,6,0,2,-1,-2,2,18
1584990365.5969348,-30,-4,-4,-7,2,-3,-3,1
1584990365.5969348,-1,8,1,4,3,2,2,12
1584990365.6185122,-18,-1,-1,1,-1,-1,4,12
1584990365.6185122,19,-5,4,-5,2,-8,-3,11
1584990365.6193864,14,3,2,-2,-2,2,1,-2
1584990365.6193864,-33,-6,0,-1,-1,-1,0,-4
1584990365.6403735,-12,3,0,2,0,0,-2,10
1584990365.6403735,21,-3,-1,-1,-2,0,-2,-11
1584990365.6412482,29,10,10,6,2,3,2,17
1584990365.6412482,-2,-6,-9,-12,-11,-9,-8,-35
1584990365.6554165,-103,-6,3,0,-2,6,1,-13
1584990365.6554165,22,-4,-6,-5,-4,-1,-3,-11
1584990365.6566563,31,13,6,8,3,2,1,18
1584990365.6566563,-6,4,-2,1,3,12,12,17
1584990365.6779988,-44,1,-1,0,-4,-5,-2,-33
1584990365.6779988,32,8,1,-3,1,-5,-6,16
1584990365.6794658,37,-21,-7,-7,-2,-3,-5,19
1584990365.6794658,-3,7,-4,-6,-1,1,6,12
1584990365.708599,-66,0,2,1,0,-2,1,-25
1584990365.708599,19,11,3,3,3,8,11,29
1584990365.7099156,-22,6,3,1,5,5,9,36
1584990365.7099156,2,-5,-2,-1,-2,-4,-1,6
1584990365.7237315,-32,-20,-4,-6,-3,-5,-9,-23
1584990365.7237315,38,2,-2,-3,-2,-4,-7,-12
1584990365.7250698,-42,4,2,2,0,0,6,7
1584990365.7250698,52,6,-2,-3,2,3,12,43
1584990365.7379267,99,2,-7,-4,-3,1,-7,-1
1584990365.7379267,-16,7,7,5,0,-6,5,5
1584990365.7388551,-2,-4,-2,-3,-4,4,0,-4
1584990365.7388551,5,1,-4,0,-2,-3,-3,-25
1584990365.7604003,-47,1,5,6,2,3,6,16
1584990365.7604003,95,8,0,2,0,-7,-6,-31
1584990365.76125,-9,-24,-7,-7,-2,-4,-13,-44
1584990365.76125,-26,13,5,3,3,7,14,39
1584990365.7747164,94,12,8,4,-1,6,4,30
1584990365.7747164,-38,-8,-11,-8,-6,-4,-2,-8
1584990365.782926,1,3,0,0,0,2,1,6
1584990365.782926,4,8,6,1,1,3,3,14
1584990365.7991977,-3,-1,-1,1,-2,-2,4,-10
1584990365.7991977,-13,-4,2,1,0,-1,3,10
1584990365.8005412,20,5,2,2,-3,-1,-5,-35
1584990365.8005412,-10,3,2,0,0,1,1,14
1584990365.8203604,-40,-5,0,0,0,0,-7,-48
1584990365.8203604,26,-10,-5,0,-2,-1,4,4
1584990365.8212218,-12,-19,-5,-3,-4,-9,-14,-9
1584990365.8212218,91,4,-2,-5,-2,-6,-2,-13
1584990365.8437042,-63,-13,-3,-2,-3,-1,-4,-58
1584990365.8437042,24,6,7,2,1,4,9,41
1584990365.8450105,-68,6,4,1,1,2,2,-6
1584990365.8450105,127,9,2,0,1,2,9,58
1584990365.8587682,-99,-30,-18,-9,-8,-15,-27,-80
1584990365.8587682,-8,7,5,1,0,-3,9,18
1584990365.8603039,32,4,-1,0,2,-2,-5,-17
1584990365.8603039,43,20,6,5,2,7,18,94
1584990365.888645,-114,-26,0,-2,-6,0,-14,-75
1584990365.888645,-64,0,-3,-4,-4,-6,-12,-48
1584990365.890222,40,-13,-4,-2,-1,1,-5,38
1584990365.890222,-17,15,6,2,3,3,5,13
1584990365.903581,-75,5,4,5,2,3,9,27
1584990365.903581,114,8,-4,-1,-4,-4,0,19
1584990365.9044318,-128,-1,8,7,5,5,8,11
1584990365.9044318,108,-15,-2,-3,-6,-8,-28,-111
1584990365.9179118,-14,14,-6,-4,-4,0,-1,57
1584990365.9179118,-56,13,24,12,11,8,20,56
1584990365.919215,127,-48,-44,-27,-21,-20,-41,-36
1584990365.919215,-128,-11,3,2,7,10,30,5
1584990365.9408126,-100,65,38,23,16,19,48,127
1584990365.9408126,-128,-88,-54,-35,-25,-28,-62,-128
1584990365.9417067,127,-6,-8,-10,-8,-9,-10,7
1584990365.9417067,-15,-13,-10,-7,-1,-4,0,-82
1584990365.9628885,-128,-11,8,6,6,11,20,60
1584990365.9628885,38,-7,-7,-8,-9,-9,-17,1
1584990365.9644954,24,-13,-6,1,4,3,11,-73
1584990365.9644954,127,23,1,1,-5,3,25,127
1584990366.001528,103,-36,-11,-1,3,9,27,80
1584990366.001528,-46,17,7,3,1,4,-5,-128
1584990366.009904,-128,13,4,6,-2,-6,-8,1
1584990366.009904,-128,31,38,0,-2,-2,6,-29
1584990366.0116062,127,-11,0,4,4,7,17,31
1584990366.0116062,127,73,-30,-21,-14,-7,26,123
1584990366.0127368,-128,11,-1,3,5,6,4,33
1584990366.0127368,-128,-67,-12,-10,-6,-7,12,-44
1584990366.0229366,127,99,42,29,21,27,57,127
1584990366.0229366,-128,34,10,1,1,13,1,4
1584990366.0244126,18,-105,-50,-22,-14,-20,-35,-128
1584990366.0244126,-128,62,26,14,12,18,1,-48
1584990366.037855,111,-128,-57,-20,-13,-11,-32,-111
1584990366.037855,-29,47,-7,-14,-9,-12,-15,-20
1584990366.038729,36,62,33,18,11,14,5,-84
1584990366.038729,127,-1,-26,-8,-9,-8,-34,43
1584990366.0603814,42,-65,-1,-1,-1,0,3,111
1584990366.0603814,12,81,20,9,2,9,32,67
1584990366.0616684,-128,-128,-75,-33,-24,-33,-72,-128
1584990366.0616684,120,96,26,6,2,7,42,127
1584990366.082824,68,-11,-20,-14,-8,-8,-26,-128
1584990366.082824,-88,-21,-8,-12,-9,-18,-19,103
1584990366.0837793,-89,-3,5,13,6,-1,18,127
1584990366.0837793,-97,-59,-28,-28,-26,-31,-74,-128
1584990366.0978658,68,85,9,3,-3,1,2,127
1584990366.0978658,127,-14,0,-6,-10,-17,-45,0
1584990366.099146,-128,-29,-15,-8,-2,-2,-16,-128
1584990366.099146,127,-91,-57,-27,-18,-21,-34,61
1584990366.120376,-101,-88,-35,-24,-15,-9,17,-128
1584990366.120376,-14,22,39,25,14,17,47,127
1584990366.1213133,-128,-128,-56,-28,-14,-5,-42,-128
1584990366.1213133,127,127,85,37,23,28,44,121
1584990366.143093,127,-47,-59,-41,-30,-45,-38,-6
1584990366.143093,-1,15,13,9,10,35,63,110
1584990366.144613,-128,-10,13,14,11,-13,60,-66
1584990366.144613,-106,-128,-16,-20,-10,-16,-35,-95
1584990366.1592283,41,90,18,13,15,24,112,127
1584990366.1592283,127,63,39,25,20,13,6,127
1584990366.160585,127,-128,-100,-51,-31,-44,-31,-73
1584990366.160585,-47,-15,-9,-13,-11,-28,-33,-67
1584990366.1803951,127,28,18,7,-5,-17,8,-69
1584990366.1803951,-128,-63,-33,-14,-7,-3,-11,-68
1584990366.181271,103,21,10,11,2,-2,4,41
1584990366.181271,-53,-36,-7,0,2,-19,-15,127
1584990366.202857,69,-61,-36,-22,-19,-29,-32,83
1584990366.202857,22,43,15,12,11,31,69,127
1584990366.2037535,-128,-34,-4,8,11,7,-7,127
1584990366.2037535,127,-59,-15,-13,-1,-29,-10,127
1584990366.2185032,-128,-23,-11,0,1,23,-11,127
1584990366.2185032,23,22,12,12,12,18,-6,103
1584990366.2192783,-69,-22,-15,-10,-11,-21,12,95
1584990366.2192783,117,-57,-56,-27,-27,-35,-41,56
1584990366.2403867,112,69,28,19,12,14,43,127
1584990366.2403867,127,-28,-24,-8,-7,-7,-24,-44
1584990366.2412846,-128,70,54,26,15,19,37,98
1584990366.2412846,127,93,-10,-12,-12,-14,-2,-30
1584990366.262872,11,15,9,7,11,7,2,47
1584990366.262872,-82,-13,-12,-10,-7,-10,-2,-85
1584990366.2638648,-128,-23,-2,-4,1,3,4,-107
1584990366.2638648,-44,10,1,3,3,-12,-10,-22
1584990366.2778952,-1,-14,-8,-4,0,-5,-20,-98
1584990366.2778952,-71,-13,-1,-2,8,39,0,-128
1584990366.2791977,0,2,6,7,4,23,13,-42
1584990366.2791977,-128,24,21,5,-1,-21,32,13
1584990366.300345,127,-27,-29,-15,-16,-23,-17,47
1584990366.300345,43,-17,-21,-10,-6,0,2,-48
1584990366.301272,43,23,16,5,4,-9,15,98
1584990366.301272,-128,-22,7,9,8,13,-9,20
1584990366.3229635,-128,-43,-13,-9,1,-7,-41,38
1584990366.3229635,127,20,-7,-6,-3,-4,-12,39
1584990366.3243256,-68,16,6,6,6,5,12,24
1584990366.3243256,-69,-33,-11,-2,-2,-6,-4,38
1584990366.3378599,-11,-7,2,1,3,5,1,-75
1584990366.3378599,11,-16,-12,-2,-4,-4,-4,-128
1584990366.338697,-17,27,15,9,1,1,7,9
1584990366.338697,127,40,13,11,7,9,8,31
1584990366.3603585,-128,-103,-17,-7,-7,-18,-89,-128
1584990366.3603585,127,2,-23,-16,-16,-17,-19,-13
1584990366.3618045,-39,13,1,1,-2,-2,-6,30
1584990366.3618045,-85,-5,4,7,-2,-4,1,-42
1584990366.3828554,-68,18,8,1,0,7,-7,-27
1584990366.3828554,115,-23,-20,-18,-11,-13,-35,-128
1584990366.3841565,-11,2,6,4,0,-3,6,25
1584990366.3841565,-17,2,8,7,1,2,-6,11
1584990366.3978534,20,1,-3,-2,1,-8,0,3
1584990366.3978534,-24,-2,0,-2,-1,0,-13,-46
1584990366.3991451,-2,0,1,2,3,-6,2,-24
1584990366.3991451,-10,-3,1,2,-1,12,6,-5
1584990366.4203615,13,-19,-6,-3,-1,-1,-4,10
1584990366.4203615,-35,-4,5,3,5,-1,-16,-21
1584990366.4217381,-16,-25,-18,-10,0,-8,-13,-68
1584990366.4217381,35,13,0,1,-3,-2,-10,21
1584990366.4437087,19,16,10,4,6,0,-9,-18
1584990366.4437087,32,-2,1,-1,3,1,6,7
1584990366.445214,14,7,3,4,-1,-3,-1,-5
1584990366.445214,38,-7,-10,-7,-3,-1,0,9
1584990366.458505,0,-2,-5,-3,0,-1,-1,1
1584990366.458505,-6,4,2,4,0,-2,6,-4
1584990366.4593582,-4,-2,2,1,3,0,-6,1
1584990366.4593582,0,-6,-10,-5,2,4,6,14
1584990366.4809926,-13,-5,0,1,2,1,-5,-42
1584990366.4809926,10,-5,5,-1,0,1,7,27
1584990366.481903,-5,-3,-4,-2,1,1,-2,7
1584990366.481903,0,3,1,-3,-1,1,4,4
1584990366.5028822,-72,12,7,5,-1,3,7,3
1584990366.5028822,24,-10,-4,1,-3,-6,-12,-10
1584990366.5042562,6,5,-4,-2,-3,1,0,10
1584990366.5042562,-1,3,0,4,1,-2,-1,-3
1584990366.5178425,-3,0,1,-2,-2,4,7,2
1584990366.5178425,-8,6,7,-1,-1,1,-5,-48
1584990366.5191317,11,5,3,1,-1,1,3,15
1584990366.5191317,4,1,-3,-6,0,-1,-3,-8
1584990366.5408127,-13,-13,-5,-3,-3,-3,-13,-13
1584990366.5408127,1,10,15,5,-1,0,6,-8
1584990366.541675,4,-4,-7,-2,0,3,2,-6
1584990366.541675,12,1,-1,-1,2,-2,2,-4
1584990366.5629234,6,-3,-4,-3,0,-3,-3,-37
1584990366.5629234,-5,0,3,2,5,3,0,0
1584990366.5641496,2,-1,-4,-3,0,0,1,24
1584990366.5641496,0,1,0,1,-2,-1,1,14
1584990366.5777726,4,1,0,-1,0,1,9,19
1584990366.5777726,17,-3,2,4,0,-3,-3,-14
1584990366.5789542,-51,-3,2,-1,-1,0,24,-7
1584990366.5789542,40,9,4,3,0,-4,-24,65
1584990366.6003928,-32,-7,-3,-2,-1,-2,-5,-35
1584990366.6003928,11,3,-4,-2,2,1,1,6
1584990366.601798,10,4,4,2,1,0,6,18
1584990366.601798,3,3,-2,1,0,0,-8,-24
1584990366.6228254,7,2,-2,1,0,0,1,-13
1584990366.6228254,3,-5,-4,-1,0,1,2,5
1584990366.6237075,-4,0,1,-1,-1,0,0,-2
1584990366.6237075,4,-2,-4,0,-3,4,2,9
1584990366.637842,2,-5,-5,-1,2,0,0,17
1584990366.637842,-8,-5,1,-3,0,-2,-1,-19
1584990366.6387122,-11,1,-1,-1,-4,1,-5,-17
1584990366.6387122,0,13,0,-3,2,-3,-10,11
1584990366.6603556,3,-8,-6,2,1,1,2,1
1584990366.6603556,10,-3,1,5,3,-1,-3,-30
1584990366.6612432,-13,-5,-10,-8,-7,1,-1,-21
1584990366.6612432,-1,-4,-1,7,2,-1,-4,11
1584990366.6828809,8,-2,3,4,-1,1,5,-10
1584990366.6828809,3,2,-3,-3,-1,-1,2,2
1584990366.6841977,2,-1,-2,1,-1,2,5,2
1584990366.6841977,-1,2,1,2,-2,-1,-4,-3
1584990366.6978078,-9,-8,-1,-4,0,-1,-10,-49
1584990366.6978078,-1,-2,-2,1,1,2,2,15
1584990366.6990526,14,-1,-2,-4,1,0,4,-13
1584990366.6990526,-26,-2,-2,-1,-2,-2,-7,-16
1584990366.7203412,10,4,4,2,2,2,2,7
1584990366.7203412,3,-5,-4,-6,3,-2,-9,-3
1584990366.7216318,4,2,-2,2,-1,3,5,5
1584990366.7216318,6,2,-1,1,0,1,3,4
1584990366.7429082,22,-2,2,0,-5,-2,4,33
1584990366.7429082,8,3,2,1,2,0,-7,-13
1584990366.7442718,-19,1,-5,-4,1,1,0,-6
1584990366.7442718,5,-3,-4,-2,0,-2,1,-5
1584990366.7571707,10,8,-5,-1,3,0,-2,10
1584990366.7571707,10,1,5,-4,-2,2,4,0
1584990366.7653692,4,-13,-7,-2,-4,2,0,-4
1584990366.7653692,6,28,14,6,1,1,-3,1
1584990366.7803497,2,-12,-3,-4,1,3,1,-49
1584990366.7803497,-4,-5,-3,-5,0,-6,1,12
1584990366.7816334,-5,-2,-1,2,0,0,1,-1
1584990366.7816334,2,1,-6,-2,0,2,5,-3
1584990366.8029165,1,-9,-4,-2,-2,0,1,3
1584990366.8029165,-9,-3,1,-2,-2,-3,-4,27
1584990366.8043134,3,-5,-4,-1,-4,0,-7,-28
1584990366.8043134,19,5,3,2,-2,0,-2,-28
1584990366.8250968,-59,-13,-3,-1,-2,2,3,-20
1584990366.8250968,-1,-4,-2,-1,1,3,4,-2
1584990366.8326468,14,3,1,0,1,1,5,54
1584990366.8326468,10,-3,-1,-1,-2,1,1,-6
1584990366.8417306,8,8,5,-2,0,-1,4,-6
1584990366.8417306,1,-5,4,-3,0,-1,2,7
1584990366.8430095,-1,4,2,1,2,0,1,3
1584990366.8430095,9,2,1,2,0,-3,1,-1
1584990366.8631208,-26,-8,-1,-1,3,-3,-2,-3
1584990366.8631208,-1,3,1,1,-4,0,-3,-13
1584990366.8645678,5,-4,-3,-2,-2,-1,5,6
1584990366.8645678,11,24,19,8,0,-2,-2,0
1584990366.8861008,-6,-8,-2,-4,0,0,0,-4
1584990366.8861008,11,11,3,2,4,5,-5,-28
1584990366.8875053,-17,-11,-1,-3,1,0,5,62
1584990366.8875053,-8,-8,-2,3,-4,0,-1,-6
1584990366.9003367,2,-4,-5,-3,1,5,6,5
1584990366.9003367,26,-1,-3,-5,3,3,-3,9
1584990366.9011495,-45,-1,2,2,2,0,1,0
1584990366.9011495,14,2,-1,-1,-6,-2,-14,-20
1584990366.922851,-13,-2,-2,-1,-1,0,-3,5
1584990366.922851,8,0,1,1,1,-1,3,23
1584990366.923755,6,0,-1,-3,-2,0,5,-3
1584990366.923755,7,3,-1,0,0,3,4,36
1584990366.9461482,7,-3,0,-1,1,-3,-4,-72
1584990366.9461482,-17,-4,-2,1,1,0,-1,-19
1584990366.9475195,-2,2,-1,2,0,0,0,16
1584990366.9475195,9,1,3,0,-2,-6,-3,3
1584990366.960382,3,-4,-4,-1,0,-3,4,9
1584990366.960382,5,-1,1,0,3,0,-1,3
1584990366.9612544,12,2,-1,-1,-2,1,5,10
1584990366.9612544,-6,1,4,1,-2,-1,-3,-2
1584990366.9828165,-11,-1,-4,-1,-3,3,4,11
1584990366.9828165,8,-2,0,3,1,0,-4,14
1584990366.9841056,-5,1,7,2,1,-2,-1,-5
1584990366.9841056,2,-3,-4,3,1,2,1,-6
1584990367.006061,-4,-6,-5,-2,2,3,5,9
1584990367.006061,-1,-4,-1,-3,-1,0,-6,-1
1584990367.0074914,6,1,2,-2,1,1,5,16
1584990367.0074914,-2,-1,-5,-3,-1,4,10,7
1584990367.0203426,4,-1,-1,1,-1,3,6,-30
1584990367.0203426,9,8,7,6,3,4,15,40
1584990367.0215967,-5,-2,-2,0,-1,-1,-5,3
1584990367.0215967,15,-1,-3,-2,3,1,5,6
1584990367.043062,-35,-5,-3,-1,-3,3,6,-3
1584990367.043062,13,-1,0,-1,2,0,4,2
1584990367.0444772,6,1,1,1,1,0,-4,-6
1584990367.0444772,-27,-3,-3,0,-4,-4,-3,-10
1584990367.0665905,4,4,-1,-1,2,-3,-1,7
1584990367.0665905,11,-4,-1,0,1,-1,2,13
1584990367.0678875,-5,2,0,0,-4,-1,2,6
1584990367.0678875,-2,4,2,1,-2,1,-1,-8
1584990367.0803566,-2,0,3,1,-1,-1,0,0
1584990367.0803566,5,-10,-6,-1,-1,-1,-2,1
1584990367.0816402,9,3,2,4,-2,1,1,15
1584990367.0816402,-8,7,3,-3,0,2,-1,-4
1584990367.1028657,-2,-5,-5,1,2,-3,5,19
1584990367.1028657,-3,-9,0,-1,2,2,-8,-5
1584990367.104291,0,4,0,-1,-1,-2,1,-11
1584990367.104291,0,1,0,-1,-2,0,2,-3
1584990367.1260672,3,-3,-4,-2,-1,-3,-2,19
1584990367.1260672,2,-2,0,-2,2,-3,6,13
1584990367.1269817,0,-1,-1,-3,-2,0,-13,-23
1584990367.1269817,0,-1,-3,-4,-1,-1,2,5
1584990367.140402,3,0,5,1,0,-3,-2,-2
1584990367.140402,-1,1,0,-1,-2,-1,3,-1
1584990367.1416104,0,0,-2,-1,-1,-1,1,-6
1584990367.1416104,-1,-3,0,1,0,-1,-1,-19
1584990367.1642811,-1,1,-3,-3,1,-1,5,33
1584990367.1642811,0,-5,-3,0,2,0,2,-17
1584990367.1662328,-1,-3,-2,1,0,2,-3,-5
1584990367.1662328,2,4,1,0,0,1,1,5
1584990367.1860034,0,-8,0,-1,1,-1,4,2
1584990367.1860034,5,-3,-2,2,3,5,-5,0
1584990367.1870418,-33,-6,-1,-2,0,1,-4,-1
1584990367.1870418,-7,-5,-1,-4,-1,0,-3,-4
1584990367.2004168,2,3,-2,-1,-2,0,-2,-6
1584990367.2004168,4,-2,0,-1,4,-2,0,5
1584990367.2015398,4,5,0,0,-3,-2,-7,-1
1584990367.2015398,4,2,1,1,1,1,2,5
1584990367.2228794,-2,-5,-3,-4,2,0,0,0
1584990367.2228794,-2,-1,0,0,-1,-1,-1,-1
1584990367.223729,-2,-2,-5,-2,-1,1,-2,1
1584990367.223729,0,-1,1,-4,1,0,1,0
1584990367.246224,-4,-4,-5,-1,-1,-1,-2,-16
1584990367.246224,1,2,2,0,-2,2,5,24
1584990367.2470682,-5,-7,-3,1,0,-1,-1,39
1584990367.2470682,2,4,-3,1,-2,-2,-10,-23
1584990367.2603552,-1,-5,-2,-5,0,0,1,-15
1584990367.2603552,-3,-5,-1,-3,-2,1,0,-6
1584990367.2612703,0,7,5,3,3,-2,-3,1
1584990367.2612703,-6,-1,-4,-1,-4,-3,-1,0
1584990367.282873,4,0,-4,-4,0,1,0,2
1584990367.282873,-1,-2,0,1,3,-1,0,-2
1584990367.284206,-6,-3,-6,-3,0,-2,0,-2
1584990367.284206,0,5,-2,0,-1,1,0,2
1584990367.3060157,6,1,4,-3,1,0,2,2
1584990367.3060157,2,-5,-3,-2,-5,1,-5,1
1584990367.3073378,-3,-3,0,-2,-1,0,1,-3
1584990367.3073378,-1,-1,-1,1,1,-1,0,-6
1584990367.3203452,-2,0,-2,0,1,0,4,31
1584990367.3203452,2,-3,-1,-3,-1,1,3,27
1584990367.3216395,-9,-8,-2,-1,0,-1,-19,-62
1584990367.3216395,8,8,0,3,-1,0,4,-2
1584990367.3428698,4,0,-1,-6,-5,1,0,4
1584990367.3428698,-9,2,0,3,-1,-1,1,1
1584990367.3442729,2,-1,-3,1,1,2,0,-1
1584990367.3442729,-2,-1,-1,-1,-1,-3,2,-4
1584990367.3736072,4,-1,2,2,3,-1,0,9
1584990367.3736072,1,-1,-1,-2,-3,3,1,-15
1584990367.3745022,1,-4,2,4,-3,0,3,26
1584990367.3745022,-3,-3,0,0,-1,-1,-5,-4
1584990367.3805838,-1,-2,-2,-1,-2,0,-2,-1
1584990367.3805838,-4,2,1,-1,0,-4,-1,-3
1584990367.3818882,1,-1,-2,-1,3,1,2,-2
1584990367.3818882,2,-1,0,4,-1,1,0,-1
1584990367.4028401,-1,-2,0,-5,0,0,-2,6
1584990367.4028401,-9,-1,-1,0,0,-1,3,-6
1584990367.4041893,1,2,-1,-1,1,2,-1,-11
1584990367.4041893,-1,2,-1,1,1,-1,3,10
1584990367.4250963,0,-5,-3,-2,2,1,-1,13
1584990367.4250963,2,-8,0,-1,4,1,-7,-2
1584990367.433333,-1,5,2,-2,0,-2,-2,-7
1584990367.433333,4,-1,-3,-3,-5,-3,-5,8
1584990367.4417393,2,-1,1,-2,0,2,-1,-3
1584990367.4417393,-21,-4,-3,3,-1,-1,0,7
1584990367.4431148,-3,1,4,-1,0,-1,1,-3
1584990367.4431148,8,1,-1,1,1,-2,-5,-2
1584990367.4630063,7,-1,-1,-4,1,0,3,-2
1584990367.4630063,9,-1,-4,2,-1,-2,3,16
1584990367.4645143,-17,-7,-3,1,-3,-2,-7,-32
1584990367.4645143,4,2,0,-2,2,0,-3,3
1584990367.4859884,5,6,10,5,2,-1,1,18
1584990367.4859884,1,-1,1,4,1,-1,2,-28
1584990367.486875,5,2,-4,-5,-2,-1,0,17
1584990367.486875,-1,1,0,-1,-3,-1,-2,0
1584990367.5003252,-1,-6,-3,-1,-2,-1,0,0
1584990367.5003252,9,0,2,0,2,3,3,-2
1584990367.501132,-33,-2,-5,-2,-3,-5,-11,-11
1584990367.501132,-14,-4,-4,-2,0,-3,0,-2
1584990367.522843,11,0,1,4,2,2,2,-1
1584990367.522843,8,7,1,-1,-2,0,0,14
1584990367.5237997,0,-5,-3,1,-1,0,-1,-2
1584990367.5237997,3,-1,-4,-6,2,-4,-3,-2
1584990367.5460744,-3,-7,0,1,3,1,-1,-2
1584990367.5460744,-1,2,6,2,0,0,-2,0
1584990367.5473404,-4,1,4,2,-2,-1,1,3
1584990367.5473404,2,-2,-3,-3,1,1,1,8
1584990367.5603404,-1,-8,-1,-3,-6,1,3,-12
1584990367.5603404,-4,-4,-4,-3,-2,0,-5,6
1584990367.5612113,-1,4,0,0,1,2,1,19
1584990367.5612113,-3,-2,-1,4,-1,1,2,-8
1584990367.5828173,-2,-2,-1,-1,-2,0,-6,3
1584990367.5828173,-5,-4,1,0,2,-2,-7,-34
1584990367.583733,0,0,1,-3,-2,2,4,-2
1584990367.583733,-1,2,1,1,-4,-2,0,-4
1584990367.606482,1,-2,2,0,1,0,1,4
1584990367.606482,0,-5,-1,-4,1,-1,-3,0
1584990367.6078858,2,3,-3,1,-1,2,-5,0
1584990367.6078858,-2,1,-2,2,0,-4,-4,-2
1584990367.6203172,0,-2,5,0,-1,-2,1,2
1584990367.6203172,-5,-2,-4,2,0,0,2,-2
1584990367.6217084,-3,0,-2,-4,-3,1,-1,-2
1584990367.6217084,-1,-5,-5,-1,1,-1,0,-2
1584990367.6510608,2,5,-1,1,-1,0,0,1
1584990367.6510608,0,2,1,2,-2,1,-5,0
1584990367.6524158,1,0,-2,4,0,-1,-4,2
1584990367.6524158,2,4,3,-4,0,1,0,0
1584990367.6736329,1,-2,-3,-4,0,1,0,-1
1584990367.6736329,0,-1,0,-1,-3,2,-1,-1
1584990367.674998,-2,2,0,-1,-3,2,2,6
1584990367.674998,-1,0,2,-3,-2,0,1,-1
1584990367.6886742,-57,-13,-4,-2,-5,-5,-7,2
1584990367.6886742,45,-17,-6,-3,-4,-7,-6,-30
1584990367.6897464,44,17,1,1,1,2,7,13
1584990367.6897464,16,9,1,-1,0,-1,6,41
1584990367.7028081,-80,7,6,9,4,4,9,15
1584990367.7028081,3,-1,3,-7,5,4,0,-28
1584990367.7041728,-2,-28,-9,-7,-6,-14,-29,-128
1584990367.7041728,16,1,-7,3,-5,-2,22,52
1584990367.7259808,127,6,-6,-4,0,-5,10,59
1584990367.7259808,-21,10,5,0,1,5,-4,-9
1584990367.7268682,-32,3,-2,1,-4,-4,5,13
1584990367.7268682,-82,1,7,1,3,16,0,-13
1584990367.7486024,97,-6,-2,-2,0,10,5,-1
1584990367.7486024,77,-8,-6,-9,-8,-20,-8,-3
1584990367.7502062,24,14,10,5,5,33,13,55
1584990367.7502062,-128,-26,-13,-7,-3,-9,-22,-101
1584990367.762964,8,-40,-18,-10,-10,-9,-17,-38
1584990367.762964,9,23,9,7,9,38,6,57
1584990367.7643566,127,11,-1,-5,-6,-12,14,96
1584990367.7643566,-125,25,20,12,10,13,23,70
1584990367.7850833,29,-2,4,4,4,-1,-1,-27
1584990367.7850833,72,-58,-28,-22,-11,-17,-47,-128
1584990367.793236,22,43,10,9,7,16,28,127
1584990367.793236,-128,-39,-17,-13,-9,-17,-49,-128
1584990367.8085694,83,13,13,9,3,8,3,21
1584990367.8085694,92,15,-1,-2,1,4,27,90
1584990367.8098748,127,8,-13,-10,-11,-5,-18,37
1584990367.8098748,-128,-7,4,2,6,6,18,-7
1584990367.8228095,127,8,-6,-2,0,-9,-10,71
1584990367.8228095,-128,1,13,5,7,-4,-6,-43
1584990367.8236797,127,25,9,9,9,1,28,127
1584990367.8236797,-96,-22,-13,-9,-10,-23,-45,-57
1584990367.8460684,127,43,4,2,2,16,34,79
1584990367.8460684,-128,-9,2,3,5,4,-3,46
1584990367.8470178,127,22,15,14,7,11,21,127
1584990367.8470178,-128,-52,-24,-23,-12,-19,-38,-128
1584990367.869293,-22,17,13,11,10,25,86,127
1584990367.869293,127,-11,-32,-5,-1,-1,-6,103
1584990367.8706589,-128,20,63,12,8,4,8,-72
1584990367.8706589,127,34,2,4,-2,-1,-8,-78
1584990367.8827953,41,-95,-25,-8,-9,-18,-60,-128
1584990367.8827953,127,36,-6,-7,-4,-1,41,70
1584990367.8840315,127,12,-23,-4,-11,-10,37,108
1584990367.8840315,-87,22,21,8,0,1,21,53
1584990367.9132862,-73,-42,-19,-11,-5,-16,-28,-104
1584990367.9132862,69,20,-8,-7,-11,-16,-22,-128
1584990367.9200988,-128,-28,22,10,10,9,23,72
1584990367.9200988,61,26,-10,-4,7,44,21,127
1584990367.9303432,-128,-88,-21,0,5,20,21,-51
1584990367.9303432,22,127,21,16,18,10,-20,-128
1584990367.9316752,-128,16,11,-4,0,32,35,127
