timestamp,emg1,emg2,emg3,emg4,emg5,emg6,emg7,emg8
1584990206.8323154,1,-2,-1,-3,-4,0,-4,2
1584990206.8323154,-1,1,4,0,0,3,3,7
1584990206.834449,6,1,-3,-3,2,-3,-1,1
1584990206.834449,1,-11,-2,-5,-1,-1,-1,4
1584990206.8472137,2,9,7,0,3,-1,-4,0
1584990206.8472137,-1,-1,1,-1,-2,-2,-2,8
1584990206.8489819,0,2,-2,2,2,0,2,-1
1584990206.8489819,-3,-1,-1,0,-1,0,-3,-5
1584990206.8623776,0,4,2,-2,-1,3,-1,-4
1584990206.8623776,-2,-4,-5,0,-1,-3,-1,-1
1584990206.864301,-3,5,2,2,-4,-2,0,0
1584990206.864301,-5,-6,1,0,-1,2,1,2
1584990206.88473,-4,-6,-1,1,-2,3,1,-2
1584990206.88473,3,5,-4,3,2,-1,-3,1
1584990206.886473,-2,-1,0,1,1,-3,0,2
1584990206.886473,9,1,-6,0,1,-1,1,-2
1584990206.9147706,-11,-7,-1,-3,2,-1,5,-3
1584990206.9147706,12,3,-2,-4,0,2,2,5
1584990206.9169033,-7,-4,-1,-2,-1,4,-5,-2
1584990206.9169033,6,3,2,-1,1,1,1,-4
1584990206.9223804,-9,-6,-1,-4,-1,-2,-4,0
1584990206.9223804,-1,4,-3,-1,0,-1,-1,0
1584990206.924264,3,-3,-3,-2,0,-1,0,-5
1584990206.924264,0,-3,2,-2,-1,2,3,3
1584990206.945213,2,-8,-2,-1,-3,-3,-1,3
1584990206.945213,-4,-3,2,0,3,-2,-4,-8
1584990206.9476745,7,7,-3,0,-3,1,0,-1
1584990206.9476745,-3,-5,-1,1,-1,2,0,-5
1584990206.9672303,2,-4,1,0,2,1,2,-1
1584990206.9672303,0,4,-1,0,2,-2,0,3
1584990206.969115,1,2,0,-1,-2,-2,-1,0
1584990206.969115,-1,-8,1,-2,0,-2,1,0
1584990206.9815595,2,-7,-2,-2,-4,-2,-3,2
1584990206.9815595,0,-1,-2,1,1,0,-5,-1
1584990206.9884,-14,1,-3,1,1,-5,-4,-5
1584990206.9884,-1,2,-2,-1,-2,-2,2,-4
1584990207.0046842,7,6,-3,-1,-1,1,0,5
1584990207.0046842,-2,1,1,-3,3,1,-3,0
1584990207.006346,6,-5,-3,1,-1,-1,-2,-6
1584990207.006346,2,-2,3,1,-4,-1,2,14
1584990207.0276704,0,-8,0,-7,0,0,-3,-13
1584990207.0276704,-5,-3,2,-3,-1,-1,1,1
1584990207.029109,1,5,2,1,-1,-1,-3,5
1584990207.029109,1,-5,2,-1,1,0,0,0
1584990207.04085,4,0,2,2,4,-1,0,6
1584990207.04085,-3,-1,1,-1,0,1,-1,-1
1584990207.0498369,-10,7,0,0,-3,-1,-1,4
1584990207.0498369,-9,-3,0,-4,2,2,0,-15
1584990207.0647883,15,-1,-4,0,-3,-6,-2,5
1584990207.0647883,9,7,6,4,1,1,-1,6
1584990207.0666068,1,-1,-4,1,0,1,3,3
1584990207.0666068,3,-5,0,-3,1,-2,-3,0
1584990207.0871754,-29,-5,0,-4,-1,-2,0,-6
1584990207.0871754,20,1,0,0,1,-2,0,-5
1584990207.0891995,-4,0,-3,2,0,3,-2,1
1584990207.0891995,-9,-10,2,-1,1,-2,-1,-6
1584990207.100864,5,-3,1,-4,1,-3,-1,-2
1584990207.100864,4,6,-1,-2,-1,-1,-2,1
1584990207.1097791,7,2,-5,2,-1,-3,2,2
1584990207.1097791,-8,-5,1,1,0,1,2,-3
1584990207.1247065,-23,-1,4,2,0,-4,-4,-5
1584990207.1247065,-8,4,-4,1,3,-2,-4,-3
1584990207.126347,29,3,0,0,-2,-2,2,6
1584990207.126347,-7,-8,-4,-1,-3,1,0,-10
1584990207.1473396,-17,-2,-2,-3,-5,2,-1,0
1584990207.1473396,30,16,4,1,0,-1,1,11
1584990207.149966,0,4,-3,-1,-3,0,0,9
1584990207.149966,-8,-9,1,2,-1,0,-1,-5
1584990207.1608205,2,-4,-5,-1,1,-3,2,3
1584990207.1608205,8,4,-1,-3,-3,0,0,3
1584990207.1709063,5,1,-4,-3,-1,-3,-4,0
1584990207.1709063,12,-1,1,-3,0,1,4,11
1584990207.1838443,-4,-5,-3,-5,1,2,0,2
1584990207.1838443,6,2,-2,3,0,-1,9,-2
1584990207.192179,0,3,-1,1,-1,-1,-6,-2
1584990207.192179,-3,-5,-4,1,-1,1,3,-2
1584990207.207186,-3,-3,-1,-4,-1,2,-1,-1
1584990207.207186,-2,0,0,1,3,-1,-1,-3
1584990207.2088661,4,7,3,1,1,-1,4,3
1584990207.2088661,-3,-7,-4,-2,-4,0,2,-1
1584990207.2208786,-5,-4,-4,-3,-2,-1,-1,6
1584990207.2208786,15,5,-4,2,-3,-2,-4,-3
1584990207.2300053,-7,8,4,-1,0,-3,-4,1
1584990207.2300053,-22,-10,-7,-2,0,-2,5,0
1584990207.2447765,10,2,0,-1,-1,-1,-7,2
1584990207.2447765,5,1,-3,6,-1,-1,0,2
1584990207.2465894,-1,-1,-2,1,-3,-3,1,-4
1584990207.2465894,-15,-1,1,0,-1,-1,-9,-1
1584990207.2672312,-2,-5,-3,-1,-2,-3,-18,-1
1584990207.2672312,8,6,4,-1,-2,-1,7,-4
1584990207.2686603,5,3,-4,-1,-1,5,20,6
1584990207.2686603,-6,-3,0,2,0,1,-6,0
1584990207.2808928,1,-4,0,2,-5,3,18,2
1584990207.2808928,3,-1,-2,0,-2,-2,-30,-1
1584990207.28976,-2,-1,-5,0,0,-3,13,-11
1584990207.28976,-1,-2,0,2,1,-2,5,5
1584990207.3048062,2,6,3,-1,3,4,5,3
1584990207.3048062,-23,3,-3,0,1,0,19,0
1584990207.3065732,23,2,-5,0,1,-6,-11,3
1584990207.3065732,-14,-5,4,0,-2,-1,8,2
1584990207.3272026,6,1,1,2,-4,2,-2,-1
1584990207.3272026,-22,7,1,2,-3,0,0,4
1584990207.32867,4,-1,-1,-1,0,0,-5,-9
1584990207.32867,8,-6,-1,1,1,0,0,5
1584990207.3408816,8,11,8,-4,-2,1,2,-8
1584990207.3408816,4,5,-6,-1,2,4,37,12
1584990207.3498025,-5,-5,-4,-2,-1,-4,-45,-4
1584990207.3498025,-7,-3,-1,-1,-4,-11,-11,-15
1584990207.3648002,4,-3,-2,-1,-1,2,6,13
1584990207.3648002,1,3,2,1,2,2,-9,3
1584990207.3670728,1,7,0,3,-1,-2,0,11
1584990207.3670728,10,-7,2,-3,-1,-1,2,2
1584990207.3872378,-5,-7,-1,-2,2,2,-1,-4
1584990207.3872378,2,5,-1,2,1,-11,-7,6
1584990207.3890684,-1,-3,2,-3,-3,0,1,3
1584990207.3890684,-21,-9,-3,-2,-2,-7,-16,-31
1584990207.4008753,17,2,0,-2,0,3,9,8
1584990207.4008753,-1,5,-4,2,0,2,-14,15
1584990207.4098885,-28,-4,-1,0,-2,-5,11,-19
1584990207.4098885,13,-3,1,-1,-4,-2,-19,2
1584990207.4253848,9,-8,2,0,-1,-1,16,8
1584990207.4253848,7,4,2,-1,2,3,-11,10
1584990207.426795,-6,4,-1,2,-1,-2,8,5
1584990207.426795,-4,-5,0,1,2,3,9,-17
1584990207.4472392,-29,-4,-1,-5,-4,0,-3,5
1584990207.4472392,-11,0,1,3,1,-1,-8,-4
1584990207.4486256,16,1,2,1,-1,0,7,1
1584990207.4486256,-1,-4,0,0,-1,2,8,5
1584990207.4697382,-5,-2,-1,-2,3,2,-5,4
1584990207.4697382,0,3,-3,0,-10,-6,-11,-3
1584990207.4714878,-1,2,-1,1,10,-1,0,7
1584990207.4714878,-4,-1,4,-2,-1,8,22,-15
1584990207.4847167,2,-4,5,1,-3,-4,-45,7
1584990207.4847167,-2,1,-1,-1,-3,-10,5,1
1584990207.4863913,8,-4,1,1,-1,-3,-20,9
1584990207.4863913,-1,-5,0,-3,-4,9,36,9
1584990207.507191,8,4,2,0,4,5,0,-17
1584990207.507191,-13,-6,-2,-2,-7,2,-6,-7
1584990207.5091546,-1,7,-5,2,0,7,37,10
1584990207.5091546,0,-3,-1,-2,-1,-3,-13,10
1584990207.5208783,-29,-7,4,3,2,4,-16,0
1584990207.5208783,53,18,3,-6,0,-7,-2,5
1584990207.552921,-9,-11,-6,-6,-6,-6,-1,-29
1584990207.552921,-4,0,0,1,4,-2,9,-7
1584990207.5541706,-8,2,3,1,8,4,3,6
1584990207.5541706,-11,-1,1,4,-32,0,28,1
1584990207.5559366,-1,1,1,1,34,8,-33,11
1584990207.5559366,2,-1,1,8,29,9,11,2
1584990207.5671844,4,-7,-3,-2,-41,-11,-22,-8
1584990207.5671844,7,3,-3,4,-2,1,-4,1
1584990207.568608,-14,-4,-6,-2,13,-7,-7,9
1584990207.568608,1,0,2,3,-8,2,21,-6
1584990207.5808039,-33,-10,1,-5,-11,2,-13,-14
1584990207.5808039,18,5,1,1,0,0,2,14
1584990207.589802,6,1,2,0,0,-1,-11,6
1584990207.589802,-8,-5,0,-4,-2,-7,-18,-8
1584990207.604791,9,7,5,2,1,2,-1,-1
1584990207.604791,-54,-1,-2,-1,-1,9,46,42
1584990207.6069105,73,9,2,2,-2,5,-22,-7
1584990207.6069105,-18,-9,-1,-2,4,-7,-16,10
1584990207.6272197,-5,-16,1,-7,-7,-14,-12,-9
1584990207.6272197,-13,0,-6,1,0,3,22,14
1584990207.6291647,5,2,-1,-4,1,-14,2,-7
1584990207.6291647,-10,-7,-4,-2,-13,0,-15,20
1584990207.640799,22,7,-2,0,3,-1,16,2
1584990207.640799,-15,-5,8,10,-5,-9,-41,-25
1584990207.666777,11,5,0,-3,3,-1,13,20
1584990207.666777,-3,-1,0,-9,-45,-18,13,6
1584990207.668064,-31,-5,0,8,7,4,16,-26
1584990207.668064,-1,-8,-8,-2,-2,7,-32,-11
1584990207.67093,13,-1,1,-1,24,8,18,-3
1584990207.67093,4,0,3,-4,-1,-5,3,2
1584990207.6872272,-2,-3,-6,-4,-2,-10,-7,-3
1584990207.6872272,26,10,11,13,9,12,-1,32
1584990207.6886628,-6,-8,0,0,-4,10,19,-18
1584990207.6886628,-12,4,4,-8,-26,-13,6,-17
1584990207.7097485,13,5,-5,-2,-1,-12,-2,19
1584990207.7097485,-14,-26,-3,6,12,-4,-24,-16
1584990207.711578,58,-41,-6,9,22,1,-8,56
1584990207.711578,-58,43,30,-3,7,14,-47,-84
1584990207.7247849,-14,-13,-27,-17,-51,-23,3,0
1584990207.7247849,4,-39,-8,-10,-11,-12,-42,46
1584990207.7266896,-18,10,-7,2,2,14,58,-13
1584990207.7266896,-30,-33,0,0,6,11,-39,-20
1584990207.7476888,17,-73,-20,-14,-14,-61,-96,-9
1584990207.7476888,-21,-3,19,-1,3,13,-7,-39
1584990207.7495518,24,19,-1,2,-21,12,47,23
1584990207.7495518,3,-33,-6,-12,-22,-10,-18,29
1584990207.769771,20,11,-3,10,17,6,29,16
1584990207.769771,23,-16,-6,-6,-11,2,-54,42
1584990207.7715905,-8,-2,7,2,10,0,-114,1
1584990207.7715905,8,-5,-5,5,32,39,7,-14
1584990207.78335,-16,-12,2,-4,0,31,42,-21
1584990207.78335,-2,36,7,-8,-60,-100,-78,8
1584990207.7921808,15,-12,-8,-4,4,-26,18,12
1584990207.7921808,-18,-41,-14,-2,21,19,103,0
1584990207.8072052,-3,2,1,-3,-22,-8,-101,-12
1584990207.8072052,-14,-34,-16,-22,-30,-22,-61,22
1584990207.808618,-17,-18,-1,-3,7,0,2,-13
1584990207.808618,-17,-6,-17,3,6,17,41,0
1584990207.829686,9,13,10,-11,-6,-12,-62,-46
1584990207.829686,-44,2,-6,5,62,25,-20,-7
1584990207.831548,-60,-47,-11,-24,-126,-87,-12,-52
1584990207.831548,2,-12,8,10,12,-4,-32,33
1584990207.8433676,26,10,0,19,64,27,-34,-68
1584990207.8433676,16,17,13,19,58,38,-30,32
1584990207.8521914,28,26,21,41,25,51,96,28
1584990207.8521914,6,-43,-25,-49,-33,-1,20,-28
1584990207.8672128,0,11,-3,0,73,42,-56,-72
1584990207.8672128,-5,-71,-12,-15,-128,-128,-81,-52
1584990207.8690512,24,42,20,15,67,102,127,25
1584990207.8690512,7,32,-2,-28,-51,-27,99,14
1584990207.8898056,-22,-35,1,-11,-46,-91,-128,31
1584990207.8898056,-31,23,2,12,18,8,25,-22
1584990207.8918512,47,42,2,13,39,16,-1,48
1584990207.8918512,37,-27,-10,-12,6,23,84,32
1584990207.9034579,30,-46,-14,4,-6,-18,10,20
1584990207.9034579,12,-10,11,13,31,15,-54,13
1584990207.9121957,-5,127,36,7,-6,36,59,-5
1584990207.9121957,28,2,-1,-16,15,-2,-128,-39
1584990207.9272037,27,-24,-4,-6,-60,0,96,-2
1584990207.9272037,-23,-28,-25,-12,44,14,-39,-37
1584990207.9291062,-16,-26,-4,13,48,38,-63,-27
1584990207.9291062,34,12,9,11,-3,-22,-46,-4
1584990207.957281,2,-30,-3,-25,-11,-3,-81,-36
1584990207.957281,-12,30,-3,0,-17,-20,-25,1
1584990207.959108,10,-12,-4,1,-11,24,-52,-5
1584990207.959108,-22,6,4,22,59,-14,-57,3
1584990207.9646463,-7,-16,14,-7,-68,24,101,-8
1584990207.9646463,-5,70,-1,0,1,-6,-84,37
1584990207.9723034,-18,54,-3,-14,6,-10,-128,-36
1584990207.9723034,88,-24,-16,3,-19,9,56,26
1584990207.987187,-36,-92,12,36,96,-15,-128,-9
1584990207.987187,-63,11,-1,-47,-66,6,-18,-10
1584990207.9886088,48,18,10,17,6,28,-7,9
1584990207.9886088,29,13,4,16,27,24,71,-6
1584990208.0097897,43,-7,8,21,35,51,127,-44
1584990208.0097897,-15,17,10,-9,-43,-46,27,80
1584990208.0117304,14,-1,-19,11,93,36,-31,3
1584990208.0117304,-31,-14,15,-26,-59,-30,-114,-42
1584990208.0238461,8,10,16,22,41,2,-128,19
1584990208.0238461,-1,-6,2,-8,-10,4,-100,-19
1584990208.0322227,19,-13,-17,15,24,48,-15,-5
1584990208.0322227,-48,6,12,-24,-6,-58,-56,-26
1584990208.0472198,29,-53,-10,4,-20,-33,127,21
1584990208.0472198,-2,24,9,19,31,46,19,-16
1584990208.049136,80,-112,-19,6,48,49,70,33
1584990208.049136,-61,91,53,24,31,-6,-14,-1
1584990208.069825,-69,-28,4,-11,-11,-16,-104,12
1584990208.069825,46,14,-6,-5,-4,-2,10,-15
1584990208.0717475,-9,29,2,35,99,86,27,29
1584990208.0717475,-89,57,5,-14,-57,-23,111,-67
1584990208.0833447,26,-12,-9,-7,-17,-12,-128,84
1584990208.0833447,35,-20,-13,-3,17,12,127,-18
1584990208.0921986,7,-8,-12,-14,-81,-70,-93,-10
1584990208.0921986,-12,-35,-22,-12,25,28,5,-36
1584990208.1072052,-12,-41,-3,-43,-74,-38,73,26
1584990208.1072052,0,42,11,23,46,14,-44,3
1584990208.1090496,7,17,-13,7,30,43,88,38
1584990208.1090496,31,-27,9,-10,-40,28,14,-6
1584990208.1310358,-48,-13,-12,10,-2,12,46,-78
1584990208.1310358,52,22,-2,-12,17,2,3,-10
1584990208.1322553,5,-97,-4,-6,-14,19,13,-9
1584990208.1322553,-67,-125,-34,-3,0,20,78,1
1584990208.1432848,-27,53,18,15,2,-22,-54,38
1584990208.1432848,45,42,1,31,54,74,108,20
1584990208.152293,7,21,19,-20,-31,-39,-128,-43
1584990208.152293,7,-59,-21,-9,9,5,39,-9
1584990208.1672082,48,-44,9,15,-1,24,-20,4
1584990208.1672082,9,-38,-8,-37,-128,-110,13,6
1584990208.16906,17,23,0,39,77,102,119,23
1584990208.16906,-2,42,16,-11,-12,-40,29,5
1584990208.1897728,-13,-6,10,17,27,6,-57,-14
1584990208.1897728,-3,-23,-6,-45,-128,-104,-59,-27
1584990208.191835,-6,-2,-1,13,36,8,-71,0
1584990208.191835,11,14,20,27,35,70,127,14
1584990208.2034264,47,-72,-19,-5,3,-30,91,3
1584990208.2034264,-85,96,25,22,13,-11,-32,-26
1584990208.2121744,7,51,-3,-1,33,36,73,1
1584990208.2121744,-17,76,10,2,9,9,-11,-15
1584990208.2271945,48,-49,-7,-2,0,14,38,43
1584990208.2271945,-32,-5,9,11,15,6,12,28
1584990208.2290378,47,-73,-39,0,-2,-4,78,43
1584990208.2290378,-38,106,61,4,-26,-7,-128,-28
1584990208.2563376,13,-1,-11,-1,7,0,-19,30
1584990208.2563376,11,-10,2,2,-27,-26,-92,15
1584990208.2728872,6,-6,-15,-1,3,45,127,-8
1584990208.2728872,18,3,5,19,61,34,-12,9
1584990208.2741559,-2,-15,5,-19,-70,-23,66,9
1584990208.2741559,0,6,3,-12,-1,-23,-65,-9
1584990208.2755878,4,11,-2,-1,-25,-3,40,3
1584990208.2755878,-6,10,2,4,-9,-12,-14,-35
1584990208.2872076,-1,0,-8,12,62,72,127,29
1584990208.2872076,6,-13,3,-8,-23,-48,-50,3
1584990208.2886589,2,51,6,11,-24,-12,-104,12
1584990208.2886589,6,-63,-10,-17,-26,25,127,10
1584990208.309693,13,-5,20,7,1,10,52,-6
1584990208.309693,0,53,12,5,1,4,-75,23
1584990208.3114047,27,-4,12,8,9,17,28,12
1584990208.3114047,-32,-7,-12,-7,9,12,3,-14
1584990208.3234088,12,2,4,3,-4,-7,-7,17
1584990208.3234088,12,2,-7,0,-1,5,8,-8
1584990208.3321865,18,-5,-2,-3,-6,-1,-8,17
1584990208.3321865,4,-4,2,-9,-10,-8,-6,-35
1584990208.3472211,23,-42,-10,4,-13,3,-9,-3
1584990208.3472211,-20,127,37,-5,4,37,109,-18
1584990208.3491774,5,-2,-1,-2,-90,-72,-30,7
1584990208.3491774,32,-21,-26,18,127,37,84,-9
1584990208.3853698,-31,-47,8,-41,-110,-101,-41,-45
1584990208.3853698,3,-5,-11,-18,-2,1,30,41
1584990208.3868191,6,-9,-10,-12,-9,13,-2,-14
1584990208.3868191,-2,10,1,21,25,29,84,3
1584990208.3875325,6,-8,0,7,-1,-6,0,23
1584990208.3875325,-19,11,2,5,7,-1,-12,-56
1584990208.3932743,-1,67,5,-1,0,-7,-18,3
1584990208.3932743,-7,11,1,4,9,15,12,8
1584990208.4076262,1,-24,-12,-7,2,3,-8,-4
1584990208.4076262,-26,-71,-21,-8,0,-4,-7,-6
1584990208.4133348,51,18,30,13,33,12,-9,20
1584990208.4133348,76,127,45,18,-15,-16,16,-4
1584990208.4296186,48,-49,-16,-13,-7,0,-1,17
1584990208.4296186,18,-31,-14,-1,4,-7,-15,8
1584990208.431357,-9,-15,-6,14,5,1,-15,-31
1584990208.431357,-2,7,7,28,0,3,4,19
1584990208.4433124,-8,5,-5,-2,37,2,-3,5
1584990208.4433124,-6,3,15,32,-128,17,19,4
1584990208.4691882,-10,-2,-11,-60,127,18,-20,-9
1584990208.4691882,-9,-5,2,5,-119,3,2,3
1584990208.4701905,3,5,10,21,82,-25,0,2
1584990208.4701905,3,14,-2,76,-3,-11,2,6
1584990208.4733095,-6,-9,-3,-46,-13,-22,-1,-2
1584990208.4733095,2,2,9,-1,-39,-4,6,8
1584990208.4897227,-5,-9,-3,16,-33,-7,-15,-11
1584990208.4897227,-2,4,-2,3,-7,6,-3,-12
1584990208.491615,0,0,-1,3,-6,-8,-2,6
1584990208.491615,5,1,3,1,-3,2,-17,20
1584990208.5033653,-3,-2,-1,-3,5,-1,2,-8
1584990208.5033653,-3,2,2,4,3,-2,0,12
1584990208.5196974,22,2,-2,3,0,2,12,14
1584990208.5196974,-15,-14,0,-5,-1,0,-4,-8
1584990208.5258698,-29,3,-1,3,-3,0,-1,-61
1584990208.5258698,51,3,-1,1,1,2,7,76
1584990208.5347211,-12,-6,-1,-4,-1,-1,0,-22
1584990208.5347211,15,9,3,1,1,-5,9,43
1584990208.5496597,-22,-10,-1,-4,1,9,3,-39
1584990208.5496597,-17,-6,-8,-7,-2,-3,-7,-30
1584990208.5511248,3,20,1,6,7,58,10,14
1584990208.5511248,39,-3,6,7,0,1,5,22
1584990208.5633621,-31,-3,2,1,2,-6,1,-7
1584990208.5633621,-83,-13,-11,-13,-3,-1,-7,-31
1584990208.5797186,51,3,-3,6,-6,-19,-2,6
1584990208.5797186,27,6,4,-7,7,1,5,22
1584990208.5858843,-16,1,3,9,-6,18,6,15
1584990208.5858843,26,16,-3,-3,2,9,13,37
1584990208.5947628,-38,-20,-2,5,1,3,-4,-32
1584990208.5947628,71,-10,-4,-4,0,-5,-10,1
1584990208.6096983,-19,20,5,-3,1,0,1,-26
1584990208.6096983,8,-5,-10,2,5,3,8,26
1584990208.6115775,-5,6,7,5,4,-2,8,17
1584990208.6115775,-21,6,13,4,1,4,6,5
1584990208.632179,3,1,-3,-2,-2,0,0,2
1584990208.632179,14,10,-3,0,-3,0,2,16
1584990208.633848,-36,3,-2,0,0,0,-1,-4
1584990208.633848,9,-5,3,4,2,-1,2,-3
1584990208.645867,-4,0,1,2,2,1,-9,27
1584990208.645867,35,9,5,4,2,2,6,-2
1584990208.6547961,-24,-25,-18,-10,-6,-9,-17,-45
1584990208.6547961,56,3,-3,-7,-6,-4,-2,2
1584990208.6696298,-5,11,2,2,0,9,5,3
1584990208.6696298,-8,-13,-3,-3,-1,0,-3,-11
1584990208.6710968,-17,2,0,-3,1,-7,-2,-22
1584990208.6710968,55,-2,2,5,0,2,0,9
1584990208.6939275,6,2,-1,-4,-2,-1,6,16
1584990208.6939275,-20,2,-4,1,-3,-1,-2,3
1584990208.6957085,33,5,2,1,-1,-1,-1,-6
1584990208.6957085,-74,-14,0,-7,0,-6,-2,-14
1584990208.7077262,13,3,1,0,2,-1,-2,-3
1584990208.7077262,-28,-5,-1,2,0,3,2,-6
1584990208.7098927,22,11,3,3,1,0,1,21
1584990208.7098927,-30,-7,4,-3,1,0,2,-11
1584990208.7296839,42,-7,-3,1,0,1,-1,3
1584990208.7296839,-47,2,-3,-5,0,-1,-2,-34
1584990208.7314875,58,-6,-1,-2,-2,-1,3,17
1584990208.7314875,-1,3,4,-3,2,0,8,15
1584990208.7596853,-13,8,5,5,7,3,3,12
1584990208.7596853,-1,-15,-4,1,0,0,-5,-16
1584990208.76146,-24,-15,-6,-3,-2,0,-3,6
1584990208.76146,10,-2,-3,-1,1,-4,-7,-38
1584990208.76711,9,5,2,11,1,0,5,15
1584990208.76711,30,6,0,-11,-2,-3,2,-4
1584990208.768975,56,-1,-5,-1,-1,2,6,36
1584990208.768975,-41,-5,2,0,-2,-1,-5,-54
1584990208.789677,-21,-6,-3,2,3,-3,4,2
1584990208.789677,-38,-2,-7,-3,-7,-5,-4,-11
1584990208.7916112,9,4,3,-3,-1,-2,-1,3
1584990208.7916112,2,-8,0,-3,0,-6,5,6
1584990208.812161,-8,3,2,3,1,1,5,8
1584990208.812161,2,0,1,0,-3,-3,-9,-13
1584990208.8135705,-63,-9,-5,-2,-3,-3,-4,-36
1584990208.8135705,13,0,-4,-5,0,-1,-2,-6
1584990208.8258193,24,-1,-5,-1,0,-2,0,5
1584990208.8258193,-13,16,7,6,-1,-1,2,27
1584990208.8346698,26,-2,-4,-5,-2,1,0,-11
1584990208.8346698,2,-18,-10,-4,-5,0,-2,27
1584990208.8495157,-61,12,16,2,2,-1,-2,-51
1584990208.8495157,57,2,-10,-5,-3,-3,-2,48
1584990208.855908,39,7,6,0,1,2,3,-16
1584990208.855908,12,0,0,1,3,2,2,21
1584990208.8725872,-5,-6,-4,-5,0,3,-1,1
1584990208.8725872,-33,5,-4,0,-3,-2,-6,-7
1584990208.878284,41,3,-3,1,-2,0,3,6
1584990208.878284,-23,-7,0,-2,2,1,1,-10
1584990208.8865075,-5,0,3,2,3,-2,-1,-33
1584990208.8865075,5,-2,0,1,1,-1,-2,3
1584990208.8932908,4,-1,-1,-5,-1,0,-5,-13
1584990208.8932908,10,0,-2,-2,-2,0,-1,3
1584990208.909662,-8,-4,-2,-3,-3,-1,1,2
1584990208.909662,22,7,-3,1,-1,-2,-1,6
1584990208.911455,-6,-4,-1,3,3,2,-1,0
1584990208.911455,-5,-1,2,-2,0,3,3,6
1584990208.9321344,-21,4,4,0,2,1,0,3
1584990208.9321344,22,-13,-12,-3,-2,-1,-2,5
1584990208.9338212,20,3,0,-4,2,1,-2,-10
1584990208.9338212,28,8,1,-3,0,1,1,12
1584990208.9458468,6,-12,2,1,0,1,-6,7
1584990208.9458468,-4,14,5,1,-3,2,-3,-15
1584990208.954664,-43,-18,-7,-6,-4,-1,-5,-1
1584990208.954664,12,-10,-7,-4,0,2,-2,0
1584990208.9702537,4,-5,-4,0,-2,-4,-3,-10
1584990208.9702537,-7,5,-2,0,-3,2,2,11
1584990208.9719586,2,-4,0,-1,0,-2,-1,-19
1584990208.9719586,-32,-6,0,0,-4,-1,-5,-15
1584990208.9922361,4,-5,1,0,3,1,-4,0
1584990208.9922361,8,5,0,0,1,1,2,1
1584990208.9941623,-22,-1,1,0,-5,-2,-4,-6
1584990208.9941623,-4,-2,1,-4,3,-1,-4,2
1584990209.0058782,-28,-7,-1,-4,0,1,0,-7
1584990209.0058782,-11,-3,-3,1,2,-3,-3,-3
1584990209.0146885,8,0,-2,1,-1,-1,-2,-8
1584990209.0146885,15,-2,-1,-2,-3,0,-1,6
1584990209.029655,21,-2,-1,-4,1,0,-4,-9
1584990209.029655,-14,-2,-2,1,-4,1,-3,1
1584990209.0314546,-26,10,7,2,-4,-2,-1,-8
1584990209.0314546,10,0,-2,1,1,1,-3,-2
1584990209.052213,-28,-13,-7,-9,-4,-2,0,-4
1584990209.052213,25,12,-2,1,0,-1,2,20
1584990209.0535598,1,-1,2,-1,0,-1,3,-7
1584990209.0535598,-43,-6,-2,-4,0,2,1,-7
1584990209.0658422,-14,3,-5,-1,1,0,0,5
1584990209.0658422,25,-1,-2,2,-2,-4,-3,-5
1584990209.074648,10,-3,-1,-3,-3,-1,2,15
1584990209.074648,-6,-8,-2,-2,0,1,-3,-8
1584990209.0978425,-13,0,0,0,0,0,0,22
1584990209.0978425,-13,-5,-6,-2,-2,-4,-7,-24
1584990209.0995579,-5,-6,4,2,1,-1,1,13
1584990209.0995579,-3,5,3,-1,2,-1,-4,5
1584990209.1121695,3,1,-1,-4,0,2,-1,-6
1584990209.1121695,4,6,-2,2,-5,-2,3,0
1584990209.1138506,3,-3,-5,-3,-2,0,-1,1
1584990209.1138506,15,-6,0,-3,-1,2,-3,7
1584990209.1346512,1,8,0,2,1,1,5,-5
1584990209.1346512,4,7,-1,3,4,0,-9,-2
1584990209.1361148,-13,-1,1,-1,0,-1,3,1
1584990209.1361148,38,0,1,-3,-2,-7,-7,-3
1584990209.150093,-26,1,-1,0,-1,1,-1,-3
1584990209.150093,-26,-3,-3,-3,-5,-2,-8,5
1584990209.1516593,18,-1,3,-1,-1,3,4,-9
1584990209.1516593,-27,-5,-2,-7,1,-3,4,1
1584990209.1723554,1,3,5,-1,2,0,7,6
1584990209.1723554,8,-5,-3,2,2,-3,-26,-4
1584990209.1751072,2,12,7,-1,-3,-7,0,-11
1584990209.1751072,11,1,-2,-1,-1,1,6,0
1584990209.18581,5,1,1,1,3,5,10,8
1584990209.18581,11,1,-8,2,0,4,35,1
1584990209.194797,-5,17,14,3,-5,1,-55,-3
1584990209.194797,10,-14,-11,-4,-6,-27,-11,-5
1584990209.2097173,4,8,2,4,0,-1,11,4
1584990209.2097173,-4,4,-2,0,2,8,9,4
1584990209.2111764,7,1,-1,1,3,6,0,6
1584990209.2111764,-45,-8,2,-3,3,5,13,-7
1584990209.2320883,16,3,1,-3,2,6,7,3
1584990209.2320883,-12,3,0,2,2,3,-6,6
1584990209.2338488,26,1,2,-1,-4,-11,-28,2
1584990209.2338488,-5,-4,0,0,0,-5,2,-3
1584990209.246234,-31,-4,-5,-2,-1,3,-6,-8
1584990209.246234,22,15,1,2,4,12,36,9
1584990209.2546015,-10,-1,-1,-2,4,0,-53,1
1584990209.2546015,2,-7,3,0,-3,6,43,-1
1584990209.2697632,-24,5,-1,-1,1,-1,-23,-13
1584990209.2697632,5,-2,-2,-2,-4,-12,-34,-12
1584990209.2717237,0,-4,-1,0,-8,-15,-3,11
1584990209.2717237,-11,-11,-1,-3,0,5,-7,-4
1584990209.2921963,8,10,2,2,2,6,44,1
1584990209.2921963,-12,4,0,0,2,-3,-25,-3
1584990209.2941985,7,-5,-5,1,-1,3,-3,0
1584990209.2941985,9,-9,1,1,-3,1,-9,-3
1584990209.3059056,12,-1,0,0,-1,2,18,16
1584990209.3059056,-5,16,5,4,6,2,-15,-1
1584990209.3146682,-31,-3,-4,-3,-3,-2,0,-18
1584990209.3146682,11,-6,-3,-2,-2,-1,7,7
1584990209.3297179,-9,-6,-3,-7,1,3,-3,-2
1584990209.3297179,5,2,2,1,-1,-6,-9,-7
1584990209.3315177,27,-2,2,2,-2,-2,-3,8
1584990209.3315177,0,-3,2,-3,0,2,23,11
1584990209.3526964,-4,-8,-5,0,0,1,-19,-18
1584990209.3526964,9,9,5,2,-4,-3,4,-4
1584990209.3544433,2,2,-2,2,4,3,11,1
1584990209.3544433,-7,-2,2,0,1,8,38,3
1584990209.36583,1,1,-1,-1,0,-1,-25,8
1584990209.36583,-1,-2,-4,0,-3,-9,-22,-10
1584990209.3746774,-4,-2,0,3,-3,-2,6,3
1584990209.3746774,0,-3,1,-1,2,6,3,4
1584990209.3897228,-1,3,2,0,1,0,0,0
1584990209.3897228,3,0,-1,0,-3,-2,-6,-1
1584990209.3915412,4,-2,1,-1,-5,0,-1,-7
1584990209.3915412,-8,2,3,4,4,0,6,2
1584990209.4121454,2,-4,-3,-4,-3,2,6,-5
1584990209.4121454,-17,-6,0,-2,-5,-1,-1,-4
1584990209.413902,-21,-6,0,2,3,-6,-2,10
1584990209.413902,9,-11,3,1,1,3,-1,-4
1584990209.426222,-9,4,-1,1,-2,-1,-1,-7
1584990209.426222,9,12,4,1,-1,0,-4,-11
1584990209.434654,0,-4,-8,-5,-1,1,15,5
1584990209.434654,-5,-6,2,-4,0,-3,-7,-7
1584990209.4496634,-2,3,-6,-1,3,4,-31,0
1584990209.4496634,2,-3,-1,0,-3,-11,9,-6
1584990209.4515162,1,-1,0,2,-1,1,-4,5
1584990209.4515162,1,-2,2,-2,-1,-1,10,-9
1584990209.4719715,2,6,1,3,2,2,5,18
1584990209.4719715,-3,4,-2,-1,1,-7,-30,-7
1584990209.4797454,-2,-4,1,-1,-2,-10,14,-4
1584990209.4797454,1,-11,2,-3,-3,4,-27,2
1584990209.4858866,2,3,1,2,1,-3,-10,-1
1584990209.4858866,-1,7,-3,-1,0,0,-9,-4
1584990209.4947503,12,-2,-2,2,-2,2,13,8
1584990209.4947503,-14,1,-4,-3,1,3,9,5
1584990209.509706,4,5,1,5,-1,0,4,3
1584990209.509706,11,-2,-3,1,1,4,-3,5
1584990209.5115361,-10,-8,-3,-6,-2,1,-1,-6
1584990209.5115361,-3,-5,-2,-2,-3,-4,-5,-6
1584990209.5321267,12,3,1,-5,2,2,2,9
1584990209.5321267,5,4,-3,-1,-1,-2,-3,-2
1584990209.533798,-21,-10,-3,-2,-2,-4,0,6
1584990209.533798,4,1,4,0,-1,3,0,0
1584990209.55461,2,3,-2,-3,0,1,9,2
1584990209.55461,-3,1,-4,0,1,-2,-22,-16
1584990209.5561464,5,-3,1,-3,-3,-13,-3,9
1584990209.5561464,15,3,7,-1,2,2,3,3
1584990209.5696204,-34,-17,-10,0,-3,10,14,-12
1584990209.5696204,2,2,2,-4,-2,-15,-37,10
1584990209.5712292,-26,-11,-10,-7,-11,-7,-32,-9
1584990209.5712292,5,-10,-3,-4,-2,-4,6,1
1584990209.5926456,-5,-3,-2,0,-1,3,33,-3
1584990209.5926456,7,10,-4,2,4,9,60,-2
1584990209.5982761,-8,-3,2,3,6,0,-55,2
1584990209.5982761,7,-2,3,-2,-1,-4,21,7
1584990209.6146307,-36,-5,-1,-5,-7,-4,-6,-5
1584990209.6146307,6,-2,-4,-2,-6,-3,-14,-21
1584990209.6161187,16,-2,-2,-3,-8,-4,11,14
1584990209.6161187,0,2,0,2,8,5,13,11
1584990209.6296215,-2,0,0,-2,-4,-6,-7,-8
1584990209.6296215,6,8,-1,0,-3,0,9,18
1584990209.6313016,8,0,1,-3,-32,18,17,-11
1584990209.6313016,-24,-10,-4,1,39,2,11,-14
1584990209.6521127,-9,-9,-1,-16,-14,-28,-46,-40
1584990209.6521127,9,12,-5,6,-1,2,50,17
1584990209.6535578,-4,4,0,5,8,23,-21,6
1584990209.6535578,5,-22,4,-5,-11,-17,-35,-8
1584990209.6745362,-24,-6,-2,-4,-6,-14,-19,-3
1584990209.6745362,9,7,-1,-3,-5,1,12,7
1584990209.676013,-5,5,7,5,3,1,24,-39
1584990209.676013,-7,7,0,8,10,17,22,33
1584990209.69014,24,2,2,-6,0,-13,8,-32
1584990209.69014,-46,-9,-15,-5,-9,3,7,-8
1584990209.692008,13,-4,4,0,6,-10,13,24
1584990209.692008,-18,-5,-2,-4,-6,2,-3,-42
1584990209.7119505,-8,0,2,1,4,10,22,20
1584990209.7119505,8,5,-4,4,-2,-6,-25,-3
1584990209.7182546,-1,10,17,3,4,-16,0,1
1584990209.7182546,-6,-6,-9,-10,0,17,-5,-12
1584990209.7346137,0,22,18,0,-34,-8,-6,6
1584990209.7346137,-1,3,-10,-2,2,-2,3,3
1584990209.736111,-4,-9,-5,0,7,21,21,-12
1584990209.736111,1,-24,-17,-13,11,-12,-35,-8
1584990209.7496428,-14,6,22,16,12,8,-55,-3
1584990209.7496428,8,-10,-1,-4,16,-3,36,3
1584990209.7511165,-6,20,6,-4,-19,-8,-18,-17
1584990209.7511165,22,-39,-24,2,16,33,26,20
1584990209.7722397,4,32,19,9,13,17,25,20
1584990209.7722397,-17,18,-12,1,11,25,39,-6
1584990209.7742305,-20,21,22,10,11,-7,34,-10
1584990209.7742305,0,-18,-5,-8,4,-53,-128,12
1584990209.794404,68,-128,-9,-1,-11,34,-38,12
1584990209.794404,-55,127,18,13,10,-3,-48,42
1584990209.8008163,22,-16,-6,-4,36,45,69,-10
1584990209.8008163,-3,-11,13,5,16,-21,-31,-39
1584990209.8170953,-3,-20,-6,4,-36,-77,-23,10
1584990209.8170953,-15,-1,-14,6,57,70,44,1
1584990209.8185198,13,-15,10,-24,-72,-88,12,-37
1584990209.8185198,-4,-50,-23,-8,-17,-8,54,15
1584990209.8321013,-7,13,-2,7,37,19,68,6
1584990209.8321013,-2,7,11,21,40,46,-4,10
1584990209.8340142,11,-66,-22,7,127,127,13,-3
1584990209.8340142,0,83,18,-25,-123,-113,-8,-83
1584990209.854617,19,-43,5,-26,-128,-128,7,33
1584990209.854617,61,-54,-9,14,27,16,-37,18
1584990209.8560069,-44,127,47,58,127,127,16,90
1584990209.8560069,42,-101,-25,-11,63,26,-92,-3
1584990209.8682454,-10,71,35,-21,-114,-71,6,-27
1584990209.8682454,14,-18,-13,2,23,-42,-41,41
1584990209.8771424,-15,12,6,12,85,69,-45,-42
1584990209.8771424,18,-91,-13,-16,-128,-115,-31,-41
1584990209.8921754,1,22,-3,3,-2,29,92,14
1584990209.8921754,7,-24,-10,-17,16,-1,-65,-9
1584990209.8942666,-19,-21,-4,12,32,51,-34,-45
1584990209.8942666,27,-7,15,14,48,49,40,35
1584990209.914586,24,38,-9,-1,14,-56,-128,-18
1584990209.914586,-14,-25,-13,-1,5,-77,-63,-47
1584990209.916067,123,-57,-12,-33,-83,-24,38,12
1584990209.916067,-83,-35,46,42,113,103,71,21
1584990209.9282696,102,56,-8,12,-38,21,127,60
1584990209.9282696,-128,124,17,3,-4,-72,-128,-60
1584990209.937196,8,-36,-6,4,8,0,-40,-37
1584990209.937196,75,-47,-8,1,14,-24,18,21
1584990209.9521108,14,-19,6,12,18,26,102,39
1584990209.9521108,-6,-37,-15,-7,-1,16,-28,-20
1584990209.953568,-32,-2,-5,-9,0,-6,-48,7
1584990209.953568,4,2,3,0,-33,-1,47,3
1584990209.9745893,-10,-18,-15,0,63,8,-128,-18
1584990209.9745893,-11,-10,-15,-36,-40,-80,34,-35
1584990209.9761162,12,-9,-6,-17,-128,-112,35,94
1584990209.9761162,61,-128,-24,-2,-19,26,90,-26
1584990209.9882452,-21,103,22,15,58,41,-32,-10
1584990209.9882452,33,127,59,-2,-24,-23,-46,-1
1584990209.997149,-9,-72,-15,15,30,101,6,-22
1584990209.997149,24,6,-18,-8,-43,-66,127,8
1584990210.0121033,94,-128,-11,3,11,49,44,4
1584990210.0121033,-128,127,49,8,7,10,127,-24
1584990210.0138006,72,-31,-5,4,8,-24,-5,10
1584990210.0138006,20,-11,8,19,66,53,-46,20
1584990210.0346043,-22,0,17,37,43,69,127,11
1584990210.0346043,-33,-52,-15,-48,-51,-104,-17,-34
1584990210.0360277,10,-8,4,-7,-39,-42,-96,-15
1584990210.0360277,-29,-7,-4,11,61,43,127,-26
1584990210.0482397,-1,2,-6,-7,18,36,-39,0
1584990210.0482397,0,-1,-10,-4,1,-3,-27,-16
1584990210.0571837,8,-8,-5,11,39,49,33,40
1584990210.0571837,-39,-15,2,2,55,-35,72,-56
1584990210.0796254,18,51,3,-31,-101,-53,80,40
1584990210.0796254,6,53,0,5,26,51,11,33
1584990210.0815747,112,-91,-13,0,-56,-55,-24,24
1584990210.0815747,-128,94,-10,9,31,2,20,-40
1584990210.09463,47,33,-15,-17,7,20,51,-1
1584990210.09463,22,-128,-47,-19,-23,-16,-17,-32
1584990210.0967407,46,127,28,0,17,33,-44,-29
1584990210.0967407,-92,-33,-17,-7,16,19,76,1
1584990210.1082678,18,-58,-8,-10,13,-1,-128,-30
1584990210.1082678,-20,-8,-8,12,0,3,127,52
1584990210.1170945,3,-19,2,-10,-121,-90,108,-2
1584990210.1170945,-19,-34,-16,-39,-46,11,32,15
1584990210.1320393,8,40,22,58,94,38,-6,30
1584990210.1320393,-9,-7,-6,-35,3,25,-46,-2
1584990210.1336448,-2,1,4,-14,-44,-32,-36,-24
1584990210.1336448,-4,-19,-10,15,59,56,84,40
1584990210.15463,8,50,19,1,2,-59,-128,-18
1584990210.15463,31,-17,-19,-1,-37,-11,57,-5
1584990210.156182,-39,92,27,0,1,-10,27,-47
1584990210.156182,41,2,-19,-6,13,-14,-28,-5
1584990210.1682498,127,-128,-67,-20,-95,-45,20,26
1584990210.1682498,-90,127,98,24,33,37,27,-77
1584990210.1770542,66,-29,-16,-5,12,39,72,34
1584990210.1770542,-11,-44,-2,1,8,-5,-47,-30
1584990210.1926022,6,-20,-8,-9,-43,-15,26,-54
1584990210.1926022,0,11,4,13,59,39,121,17
1584990210.1982787,-21,10,-3,18,127,57,38,2
1584990210.1982787,-33,-47,-18,-70,-128,-128,-44,-48
1584990210.2146513,-15,0,-16,2,53,41,-43,-29
1584990210.2146513,0,26,7,20,-45,40,0,32
1584990210.21613,-1,18,9,23,127,63,117,12
1584990210.21613,-11,-44,-10,-24,-46,-81,-128,-33
1584990210.2283378,17,-61,-5,7,22,28,-56,-3
1584990210.2283378,-14,127,35,5,-37,-25,-55,8
1584990210.2446775,-6,7,1,4,-3,7,4,11
1584990210.2446775,30,-57,-19,-6,4,-4,14,9
1584990210.252133,-37,-15,-20,-7,-16,-16,-23,-6
1584990210.252133,-97,48,30,17,21,19,10,-6
1584990210.253956,26,45,-21,-12,-3,-5,-53,1
1584990210.253956,27,-64,-11,-5,-11,-10,6,-3
1584990210.275953,9,-40,-10,-1,-7,-6,5,-3
1584990210.275953,19,-11,-4,9,34,57,0,27
1584990210.277799,-3,-18,2,5,5,-48,5,-13
1584990210.277799,-10,0,0,-22,-14,-8,-51,-8
1584990210.2882657,-1,20,12,45,-6,2,0,-4
1584990210.2882657,-5,2,-17,-42,-14,30,9,-10
1584990210.297114,-1,-14,-4,-31,-27,-49,-17,2
1584990210.297114,-6,-10,-4,-10,-54,-7,43,-3
1584990210.312525,0,6,2,14,6,6,-3,1
1584990210.312525,1,9,0,11,11,3,4,1
1584990210.3183222,1,2,0,12,7,13,-2,1
1584990210.3183222,-1,-2,-3,-23,-2,-2,4,0
1584990210.3346481,3,0,-4,-5,2,-5,2,0
1584990210.3346481,-3,-1,-4,1,-1,-5,-1,1
1584990210.336264,-1,-7,4,0,1,10,0,0
1584990210.336264,-1,-5,-4,2,-4,-8,-1,4
1584990210.3572168,-7,-3,0,-2,-4,3,4,-6
1584990210.3572168,8,6,-2,0,-2,0,1,-3
1584990210.3590503,-14,3,9,-1,-2,3,0,-4
1584990210.3590503,-2,-12,-1,-7,-2,8,-15,17
1584990210.3708832,7,-5,-1,-1,-2,-3,0,-24
1584990210.3708832,-1,2,-1,2,1,4,-19,-2
1584990210.3796268,-1,-5,-3,-5,9,-1,14,-1
1584990210.3796268,-4,-1,4,2,3,-5,7,-3
1584990210.3945355,-1,1,2,4,9,8,-3,-1
1584990210.3945355,-2,7,-3,13,21,2,-2,1
1584990210.3959253,2,-3,-1,-9,0,0,1,3
1584990210.3959253,-1,-2,-1,1,-9,16,2,-2
1584990210.4081566,-1,-3,0,-16,3,-20,-2,-3
1584990210.4081566,0,-1,-4,6,3,5,1,1
1584990210.423318,0,-3,0,7,5,0,0,1
1584990210.423318,-3,-2,-2,-9,0,4,-2,-1
1584990210.4307983,-2,-15,-6,-2,0,3,0,2
1584990210.4307983,-9,17,5,4,-3,-1,0,-7
1584990210.4396338,3,6,6,3,2,1,2,3
1584990210.4396338,13,-4,0,-2,1,-2,-3,1
1584990210.4546597,1,7,-5,-3,-1,0,0,0
1584990210.4546597,1,4,3,1,0,-3,-2,1
1584990210.4561634,-6,-11,-4,-4,-1,1,1,-2
1584990210.4561634,1,-4,0,-1,1,-1,1,2
1584990210.477143,0,-2,-3,-3,-1,-1,-6,-4
1584990210.477143,3,1,-7,0,-3,0,1,-1
1584990210.4789045,-1,-1,5,1,0,-1,2,-10
1584990210.4789045,2,5,1,1,2,1,2,4
1584990210.4940135,2,3,-3,-2,-1,0,-1,0
1584990210.4940135,0,0,-2,0,0,2,-1,1
1584990210.4958565,-1,-2,6,-7,0,0,-1,4
1584990210.4958565,0,-1,-1,-8,0,1,-2,2
1584990210.5223105,0,5,-4,2,-2,2,1,-2
1584990210.5223105,4,1,-4,2,-2,0,-2,3
1584990210.5241454,0,-4,-2,-2,-2,0,1,-12
1584990210.5241454,-5,-1,6,-1,0,-2,-5,1
1584990210.538279,8,6,1,1,3,-4,-1,0
1584990210.538279,-8,-6,-5,-2,0,0,0,2
1584990210.5403426,-3,-5,8,-3,-2,-2,0,7
1584990210.5403426,3,-5,-4,-2,-1,1,-3,-7
1584990210.552123,9,-1,4,3,3,-1,1,5
1584990210.552123,-3,14,2,4,3,1,2,11
1584990210.5535533,-38,-13,-3,-12,-5,-7,-9,-35
1584990210.5535533,8,4,-1,-5,1,0,0,4
1584990210.5745697,4,13,4,6,-4,-3,0,-2
1584990210.5745697,24,2,-5,1,-4,2,0,5
1584990210.5759838,1,-4,4,1,-1,1,1,11
1584990210.5759838,-3,1,-1,8,1,-1,0,2
1584990210.5971289,23,4,-1,0,5,14,3,14
1584990210.5971289,-2,-4,-5,-11,-12,-22,-4,-11
1584990210.5989373,-72,-21,1,-2,-4,-4,-7,-53
1584990210.5989373,-8,0,-4,1,1,5,1,5
1584990210.6121058,25,6,3,-4,-3,-2,0,14
1584990210.6121058,-1,0,0,8,2,-3,1,-2
1584990210.6137877,30,3,2,-6,-5,4,1,13
1584990210.6137877,-19,-10,-1,-5,-4,3,1,-6
1584990210.6346319,20,11,-2,9,7,2,3,0
1584990210.6346319,-33,-14,-3,-22,-17,0,-2,-10
1584990210.6361098,39,-1,0,5,3,-9,3,30
1584990210.6361098,-37,0,3,5,4,-1,3,-2
1584990210.6579506,-4,-6,-8,-14,-2,-6,-16,-56
1584990210.6579506,29,10,-3,-3,-2,-3,1,14
1584990210.6597254,9,3,4,4,3,5,3,20
1584990210.6597254,-66,-10,2,-1,0,3,-1,-7
1584990210.672172,23,3,-1,1,0,-4,3,5
1584990210.672172,2,-4,-5,-2,-1,-3,1,-2
1584990210.67427,5,1,-1,3,2,0,-3,-19
1584990210.67427,19,9,0,2,1,-1,4,18
1584990210.694623,-35,-5,-5,-3,-1,-1,0,2
1584990210.694623,-9,5,-5,0,-4,-1,0,-13
1584990210.696065,28,-3,5,0,1,-3,-2,-3
1584990210.696065,-5,1,1,-1,3,2,-2,3
1584990210.7171204,-49,4,2,-2,3,-1,-3,-2
1584990210.7171204,-19,-7,-3,10,-1,-1,-3,-30
1584990210.7188108,18,-12,-4,-16,0,-4,-5,18
1584990210.7188108,-12,-7,-4,4,2,1,-3,-36
1584990210.7314255,14,20,-1,6,3,1,7,26
1584990210.7314255,-21,-8,-4,-10,-11,-5,-1,2
1584990210.7382038,17,-19,-8,-4,-5,-3,-11,-33
1584990210.7382038,10,11,4,3,6,1,3,14
1584990210.7546017,8,11,4,3,5,2,2,9
1584990210.7546017,0,1,2,1,1,1,0,9
1584990210.7561052,-5,-5,-1,-3,-4,0,4,-4
1584990210.7561052,22,-1,3,2,-2,-4,-3,5
1584990210.7771115,-13,4,-1,1,2,-2,-4,-15
1584990210.7771115,15,-6,-1,-3,0,0,-1,11
1584990210.7788463,-25,-1,1,0,1,0,0,6
1584990210.7788463,19,-13,-5,-1,0,-3,-2,-8
1584990210.7995932,-28,-5,-7,-2,1,-2,-6,-27
1584990210.7995932,-6,-3,-4,-5,-3,-1,-3,14
1584990210.8014562,9,3,4,-1,-2,4,2,3
1584990210.8014562,-45,-1,1,1,3,3,7,24
1584990210.8145773,-16,0,-2,5,3,4,5,18
1584990210.8145773,-19,-29,-15,-12,-11,-11,-25,-87
1584990210.816058,38,-1,1,-2,0,2,3,32
1584990210.816058,-26,-5,-7,-5,-2,-5,-1,-46
1584990210.8371587,8,9,0,2,1,-2,6,21
1584990210.8371587,0,4,4,4,-1,0,5,12
1584990210.839002,-2,-4,1,-2,-3,-1,-1,6
1584990210.839002,-1,-4,0,-2,-1,-2,-2,3
1584990210.8508031,-1,-6,-8,0,-3,-1,0,-1
1584990210.8508031,-2,24,14,7,2,1,-3,-6
1584990210.8595848,1,4,0,-3,2,1,-2,-1
1584990210.8595848,3,-21,-7,-2,0,-1,2,-2
1584990210.8745923,-8,20,7,-1,-2,-1,0,-16
1584990210.8745923,16,0,-1,0,2,-3,-5,-1
1584990210.8761182,-12,-7,2,1,1,0,1,23
1584990210.8761182,20,-2,0,-3,3,-2,4,15
1584990210.8970723,-66,-9,-10,-3,-3,1,-5,-39
1584990210.8970723,27,12,0,4,0,1,3,15
1584990210.8988788,-15,-1,0,-5,1,2,-3,-1
1584990210.8988788,9,-3,5,0,-1,2,1,7
1584990210.9112146,3,7,-2,3,-2,-1,0,12
1584990210.9112146,13,3,0,3,-3,-3,-6,-3
1584990210.9194982,-25,-7,0,-3,-3,2,-4,-7
1584990210.9194982,-27,-5,-1,-3,-3,0,-4,-22
1584990210.9345922,2,1,-5,-2,-1,0,0,5
1584990210.9345922,10,-1,-1,-1,-3,1,0,1
1584990210.9361868,4,-9,0,-3,2,1,-2,-4
1584990210.9361868,-1,21,12,4,-1,-1,-2,0
1584990210.957182,-3,-8,-6,0,3,-3,1,6
1584990210.957182,-11,2,-3,-3,-4,-3,-6,-10
1584990210.9591212,9,-4,-1,-4,-3,5,0,-12
1584990210.9591212,-1,-9,-1,1,2,-1,-3,15
1584990210.9708087,-30,3,-3,-1,0,0,-3,0
1584990210.9708087,14,-3,-5,0,-2,-3,1,-16
1584990210.979572,-5,-4,-2,-4,-1,1,0,4
1584990210.979572,3,7,7,-1,-2,1,2,11
1584990210.994616,6,4,2,0,-2,-1,-3,-4
1584990210.994616,8,-3,-4,0,0,-8,-2,-4
1584990210.9960525,-26,-5,-1,-5,-2,1,-4,-8
1584990210.9960525,8,5,0,0,2,1,2,7
1584990211.0170743,-4,-8,-7,-3,-3,-3,-4,-10
1584990211.0170743,15,4,-3,-3,-1,-1,-1,-5
1584990211.0185344,-28,2,3,1,3,2,4,4
1584990211.0185344,27,4,-2,3,2,2,0,-3
1584990211.0307913,13,-4,-2,-2,-3,-1,0,-5
1584990211.0307913,4,-3,-5,0,-3,0,-2,4
1584990211.0395625,-5,8,4,1,-1,-1,0,4
1584990211.0395625,-2,-6,0,-5,1,2,-3,-7
1584990211.0546112,12,-3,-1,1,0,-2,-1,6
1584990211.0546112,-47,-14,-3,0,-1,-3,-4,-11
1584990211.0560648,2,9,1,0,5,2,3,-2
1584990211.0560648,16,-8,-2,-1,1,2,3,0
1584990211.0775278,-6,0,1,-1,1,-2,1,-8
1584990211.0775278,-16,0,-5,1,-2,-2,1,2
1584990211.0791206,5,-11,0,-5,-2,0,-5,-10
1584990211.0791206,-19,-7,0,-1,-3,-2,-5,-3
1584990211.0908942,13,3,-3,-3,0,1,8,-10
1584990211.0908942,7,-1,3,0,-1,-2,2,2
1584990211.0995374,-13,-6,-2,0,0,-2,1,11
1584990211.0995374,-12,1,2,0,1,2,1,0
1584990211.114608,-5,3,-1,0,1,3,-2,1
1584990211.114608,-3,-3,-2,1,-1,3,1,2
1584990211.1161413,12,-3,-2,1,-5,-3,1,11
1584990211.1161413,-6,-7,0,-2,-3,-3,-1,-14
1584990211.1378374,3,7,1,0,-1,0,0,9
1584990211.1378374,20,6,1,1,0,-1,2,-3
1584990211.139828,-11,-13,-3,-1,2,4,1,1
1584990211.139828,-14,1,9,1,0,5,-2,-2
1584990211.1508317,10,3,-4,4,2,-2,-1,-2
1584990211.1508317,4,11,7,2,-2,-4,-1,-1
1584990211.1595657,-8,-11,4,-1,3,-3,-2,-3
1584990211.1595657,-6,-3,-6,-3,-3,2,0,-1
1584990211.1746292,0,-8,0,1,-1,0,1,17
1584990211.1746292,4,15,-2,0,-3,-4,6,-8
1584990211.1775844,0,-13,-7,-4,0,3,-1,9
1584990211.1775844,-13,-4,0,-3,-1,-2,-11,-14
1584990211.1978183,-1,-1,-3,-1,-2,-4,0,-2
1584990211.1978183,-6,-1,-5,2,-4,-2,2,10
1584990211.2002244,9,-8,-1,-4,2,1,-2,-11
1584990211.2002244,-1,4,3,-3,2,-3,3,3
1584990211.2107673,24,-4,1,2,-1,-2,5,10
1584990211.2107673,-22,2,-1,-2,0,-2,-1,1
1584990211.219549,8,-5,-4,-3,0,-2,-2,6
1584990211.219549,17,1,-3,-1,-1,-3,0,0
1584990211.2346594,-12,-7,0,-1,-3,-1,0,-1
1584990211.2346594,1,19,5,2,-3,0,12,1
1584990211.2360475,3,-8,-1,1,0,5,-1,12
1584990211.2360475,-11,10,8,0,2,4,7,-4
1584990211.2562406,16,-5,-1,1,-4,-4,-21,-2
1584990211.2562406,-6,-11,-1,-4,-8,-9,17,-9
1584990211.2714186,0,-1,-1,0,2,7,-8,-1
1584990211.2714186,7,-5,3,-1,4,2,-14,0
1584990211.272734,4,10,-1,-4,-1,-9,-10,6
1584990211.272734,-10,-9,-3,-5,-6,-4,5,-8
1584990211.2796578,19,1,-4,-5,-3,1,4,-3
1584990211.2796578,-18,-7,0,1,3,8,13,-1
1584990211.2950492,7,16,9,3,1,3,8,14
1584990211.2950492,-4,-2,0,-2,-4,0,-9,-15
1584990211.297223,1,-6,-6,-3,-3,-1,3,2
1584990211.297223,-2,-1,1,0,1,-2,-6,3
1584990211.3170629,10,5,5,3,0,0,7,2
1584990211.3170629,-1,-3,-3,-2,0,2,-10,0
1584990211.3184638,-4,-6,3,-3,4,-1,12,-3
1584990211.3184638,21,4,5,-2,0,-2,-4,3
1584990211.3308048,-32,2,0,1,-1,-3,0,-15
1584990211.3308048,1,0,-4,-2,-4,-3,-15,7
1584990211.3395798,4,-8,0,0,0,1,12,3
1584990211.3395798,-5,0,2,5,-4,2,5,-4
1584990211.3545854,2,-5,-8,1,-1,3,-21,-8
1584990211.3545854,5,8,4,0,-5,4,-12,3
1584990211.356085,15,14,6,0,-5,-24,-28,2
1584990211.356085,-16,-8,2,-1,3,1,1,-8
1584990211.3778021,13,7,0,2,2,8,28,9
1584990211.3778021,6,0,-4,-1,-2,-2,0,-2
1584990211.3795977,7,3,5,1,3,5,-23,10
1584990211.3795977,20,7,3,4,3,-3,10,1
1584990211.3908455,-1,-6,-6,-2,1,-1,-20,21
1584990211.3908455,-31,-9,-1,-2,-2,-4,27,-25
1584990211.399555,-13,2,-1,-1,2,0,-1,-14
1584990211.399555,10,2,2,2,0,2,7,10
1584990211.4145787,11,18,8,5,2,-1,2,5
1584990211.4145787,2,0,3,0,0,2,-3,-1
1584990211.41599,-8,-6,-2,0,0,1,7,-3
1584990211.41599,0,-3,-2,0,0,0,-11,3
1584990211.4371471,6,4,-3,-3,-3,-2,1,4
1584990211.4371471,-10,0,1,4,-1,5,7,-18
1584990211.4389336,-3,-4,0,-3,-2,0,8,6
1584990211.4389336,2,0,2,0,-3,-6,-22,5
1584990211.459382,2,-1,-6,1,-4,-4,20,3
1584990211.459382,3,2,-1,1,0,6,3,2
1584990211.4670823,-2,-9,-3,0,-1,7,14,-12
1584990211.4670823,3,3,-1,0,0,2,-28,2
1584990211.4822233,24,14,6,6,0,3,42,3
1584990211.4822233,-28,-11,-2,-1,-3,-8,-32,12
1584990211.4836953,-6,-7,-2,-3,-7,-8,-1,-36
1584990211.4836953,-38,-16,-5,-1,0,3,5,-15
1584990211.4970572,16,6,-3,-3,-2,3,5,5
1584990211.4970572,3,0,2,4,5,4,13,26
1584990211.4987063,12,-2,3,-1,0,-4,-26,-7
1584990211.4987063,1,-4,-3,-6,-4,-6,7,-1
1584990211.5195885,-28,6,-4,1,-2,2,2,6
1584990211.5195885,14,-2,0,-2,-1,0,-11,2
1584990211.5210252,-2,-1,-1,0,-4,0,12,-1
1584990211.5210252,6,1,-2,13,8,4,-17,4
1584990211.5345805,3,3,-2,-9,2,-8,9,-3
1584990211.5345805,5,3,0,-4,-10,-7,-29,3
1584990211.536003,0,-4,0,-5,-10,-3,56,-1
1584990211.536003,-3,-6,-2,3,3,-6,-34,0
1584990211.5571601,3,0,-3,-1,4,11,48,-1
1584990211.5571601,12,-1,-3,-2,-6,5,-4,8
1584990211.5589726,1,17,9,1,1,1,-7,-1
1584990211.5589726,-13,-10,-8,-5,-4,-11,-6,-6
1584990211.579499,-6,6,-10,-1,0,0,3,3
1584990211.579499,35,-5,-3,4,2,1,-10,-1
1584990211.581012,9,14,10,0,2,2,11,-1
1584990211.581012,-2,-4,-1,-3,-4,1,-8,-1
1584990211.5945542,15,3,3,3,10,1,17,-5
1584990211.5945542,-10,-1,-6,6,8,6,-18,-3
1584990211.5959342,20,-14,-3,-1,-4,-1,3,0
1584990211.5959342,-11,2,2,-7,-22,-13,-12,0
1584990211.617042,2,5,-4,-9,-17,-4,-25,0
1584990211.617042,3,-4,2,13,1,-13,1,1
1584990211.61844,3,8,-3,2,42,6,65,-13
1584990211.61844,4,4,6,11,19,15,39,43
1584990211.6396127,2,13,10,3,9,24,9,15
1584990211.6396127,14,-19,-11,-13,-20,-21,-73,-43
1584990211.6413047,-7,1,-6,-5,-25,-27,17,20
1584990211.6413047,0,-15,4,4,11,3,4,0
1584990211.6531858,17,38,13,3,4,8,-18,-1
1584990211.6531858,7,-7,-7,2,10,6,44,22
1584990211.6621375,-15,0,-8,-8,-2,1,-7,-3
1584990211.6621375,21,3,3,1,3,17,27,7
1584990211.6770458,-4,-7,-2,-2,10,6,3,6
1584990211.6770458,19,-10,-12,10,24,13,27,15
1584990211.6788282,-24,35,30,16,27,20,-19,-5
1584990211.6788282,36,-30,-16,-28,-110,-44,8,33
1584990211.6994772,-24,20,0,-4,-1,-9,-4,31
1584990211.6994772,19,-8,-8,17,36,21,42,16
1584990211.7013795,7,35,11,14,33,28,-34,2
1584990211.7013795,6,11,5,-17,-38,-22,20,-51
1584990211.7220917,-14,-40,2,-7,-41,-13,-5,20
1584990211.7220917,-11,14,-13,8,12,12,-1,5
1584990211.7237253,-30,28,5,6,24,3,19,-3
1584990211.7237253,31,-31,3,8,22,23,-7,-14
1584990211.7371182,37,30,-6,-1,1,15,-29,7
1584990211.7371182,-15,-16,6,7,5,12,32,9
1584990211.7432048,-3,-55,-8,5,3,-14,-48,46
1584990211.7432048,25,23,8,7,51,19,-10,-16
1584990211.7596653,-46,9,8,-16,-44,-26,-9,-44
1584990211.7596653,7,-4,-6,-13,-40,4,89,29
1584990211.7614064,3,-14,-4,17,59,7,9,2
1584990211.7614064,30,-15,-6,-15,1,16,32,15
1584990211.7732246,-29,8,8,6,-4,34,98,28
1584990211.7732246,1,1,2,3,-5,-23,-128,-34
1584990211.7820985,36,127,17,16,82,9,127,-4
1584990211.7820985,-21,8,15,-10,-24,8,-45,69
1584990211.79703,15,-91,-17,-8,-3,-8,-40,-6
1584990211.79703,-26,127,6,0,21,16,30,26
1584990211.7987976,-27,30,-9,-12,-11,30,-12,-20
1584990211.7987976,-4,-88,-26,-36,-66,-92,-128,-41
1584990211.819565,-3,43,7,16,34,27,107,17
1584990211.819565,7,-84,-24,-10,20,42,-41,-14
1584990211.8209708,15,26,21,-4,-38,-23,-4,4
1584990211.8209708,19,19,8,0,-7,-3,-47,-12
1584990211.8345923,39,-15,11,56,110,45,20,23
1584990211.8345923,-11,-6,3,-22,-41,7,-16,32
1584990211.8422163,10,-32,-1,-28,-55,-45,-103,-9
1584990211.8422163,-8,-71,-4,25,71,35,4,20
1584990211.8571324,-21,82,1,-10,-9,16,-41,-8
1584990211.8571324,37,8,-4,15,19,-9,-43,-13
1584990211.8590553,44,-49,-16,-11,53,51,-5,-15
1584990211.8590553,-128,96,47,-2,-67,-44,-10,-3
1584990211.879535,53,18,-6,-1,-26,-25,-2,29
1584990211.879535,29,-57,-10,6,41,50,89,20
1584990211.881411,-23,55,-7,-3,-27,-10,33,-29
1584990211.881411,15,-30,-11,-2,-11,-22,47,-8
1584990211.8931978,-97,49,0,-11,-4,8,55,-38
1584990211.8931978,-7,-36,-11,0,14,-15,-47,3
1584990211.9095411,-22,20,-8,-13,7,38,-28,11
1584990211.9095411,-7,58,2,-3,22,7,57,13
1584990211.9170246,4,-21,0,17,39,23,0,-20
1584990211.9170246,7,-13,7,-1,-36,-28,-128,20
1584990211.918487,-7,-15,-16,27,73,26,-128,-6
1584990211.918487,13,-12,14,-28,-39,-10,113,18
1584990211.9395924,-8,-4,-1,-13,-33,-45,-105,-4
1584990211.9395924,1,-16,1,22,25,12,-128,-10
1584990211.941389,10,-23,-17,-6,-9,2,-1,-10
1584990211.941389,20,-18,13,6,-3,-5,34,-2
1584990211.95378,-14,127,37,25,61,65,52,26
1584990211.95378,65,-128,-25,-14,-69,-52,-53,11
1584990211.9622123,-124,55,20,18,33,33,58,-3
1584990211.9622123,-3,11,8,-7,-5,-25,-33,-3
1584990211.9761193,-5,-70,-26,-4,3,-14,-28,-5
1584990211.9761193,14,-52,-14,40,82,35,24,5
1584990211.9907277,-66,18,41,-60,-111,-49,-94,-12
1584990211.9907277,-17,-19,0,-10,-33,-48,-55,34
1584990211.9995842,17,-19,-1,4,2,13,-41,-45
1584990211.9995842,-3,16,6,26,16,22,3,7
1584990212.0013194,2,-5,1,39,112,92,44,-22
1584990212.0013194,-6,-15,1,-50,-128,-128,-64,18
1584990212.0222557,5,-3,-6,2,25,53,127,14
1584990212.0222557,6,12,6,22,29,43,127,35
1584990212.0239735,5,-3,-10,-17,-33,-56,-128,-44
1584990212.0239735,-23,54,19,25,40,37,112,8
1584990212.0371742,71,-128,-28,1,16,19,-16,68
1584990212.0371742,15,76,25,-3,-20,-59,-128,-12
1584990212.0390244,-101,46,19,9,30,24,-67,-14
1584990212.0390244,-70,-16,4,8,10,30,127,3
1584990212.0596159,90,-12,1,-7,-21,-7,-128,15
1584990212.0596159,-8,13,3,44,59,38,34,17
1584990212.0613875,12,-10,-12,-22,-1,-13,21,-12
1584990212.0613875,10,-36,-8,-39,-69,-9,85,21
1584990212.073228,-44,-15,-7,22,66,27,31,-41
1584990212.073228,12,-15,-1,-39,-123,-111,-18,3
1584990212.082226,11,17,3,23,80,89,100,32
1584990212.082226,-9,-12,-1,5,17,20,-18,-57
1584990212.0977821,3,-4,-18,-11,34,24,-107,21
1584990212.0977821,5,-9,4,-5,3,-64,-85,-33
1584990212.0994942,-10,-41,-6,-5,-68,-24,-26,33
1584990212.0994942,27,39,17,0,-13,3,83,-10
1584990212.1195796,-20,-43,-25,-4,34,23,80,-15
1584990212.1195796,20,84,11,1,-16,3,41,21
1584990212.121001,0,-128,-38,-8,10,11,-128,28
1584990212.121001,-51,127,62,8,12,11,48,15
1584990212.1331575,67,-45,-20,1,0,-10,-28,-49
1584990212.1331575,0,-54,-10,1,4,9,13,13
1584990212.1421387,12,-4,-1,-3,-7,-6,6,31
1584990212.1421387,-36,-3,-6,9,46,34,26,-3
1584990212.157143,1,-8,-1,8,0,16,-17,-13
1584990212.157143,-2,16,-14,12,54,26,102,73
1584990212.1589465,-6,-47,-14,-69,-128,-75,-41,-13
1584990212.1589465,-11,20,2,20,13,45,31,8
1584990212.1870556,0,8,-6,12,86,-4,-70,-13
1584990212.1870556,-5,-9,8,0,-92,-31,19,-13
1584990212.1884363,-8,-4,-3,-16,6,4,4,-8
1584990212.1884363,0,6,-1,9,10,16,-29,9
1584990212.1935933,-6,-3,-3,3,11,7,35,-8
1584990212.1935933,3,4,-1,6,9,9,0,11
1584990212.2021499,15,-25,-8,-4,6,2,-15,3
1584990212.2021499,3,6,-1,0,-1,-1,4,-20
1584990212.2170804,-73,41,23,6,9,5,0,-27
1584990212.2170804,13,-23,-5,-7,-2,-4,3,0
1584990212.218501,-5,-39,-5,-2,1,-1,0,3
1584990212.218501,27,35,5,-1,1,0,0,-9
1584990212.2396424,2,-53,-17,0,-6,-3,0,10
1584990212.2396424,20,61,25,-2,0,-2,-12,-2
1584990212.2412791,-28,1,5,-1,2,2,26,-8
1584990212.2412791,-1,-14,0,28,3,-11,-41,-9
1584990212.2532637,3,2,-10,-46,-16,-9,-13,-8
1584990212.2532637,-5,-10,-8,10,-7,9,4,-1
1584990212.262152,5,2,7,37,12,16,21,12
1584990212.262152,-5,0,1,-24,-128,-21,-17,-5
1584990212.2764034,1,9,-5,-6,127,17,-1,-5
1584990212.2764034,-7,-10,2,-5,-45,-8,-16,-27
1584990212.2831776,-6,-6,-3,13,34,-10,-24,-5
1584990212.2831776,4,-1,3,-9,-28,2,25,24
1584990212.3000212,-1,4,-2,4,-20,-3,-13,-5
1584990212.3000212,3,3,-1,2,-2,3,5,11
1584990212.3018134,-4,-8,0,-2,1,-1,-1,-22
1584990212.3018134,-5,0,-2,-2,-3,-2,13,-15
1584990212.3131874,-2,8,-1,2,-3,-2,4,13
1584990212.3131874,3,-1,1,2,0,1,8,27
1584990212.322097,2,-3,2,0,-1,1,2,-9
1584990212.322097,-1,-1,0,-5,-2,1,-1,17
1584990212.3358858,-15,-3,-4,-2,-1,-2,-3,-11
1584990212.3358858,16,5,3,-3,2,0,0,16
1584990212.3445978,-1,-3,2,-2,2,2,2,1
1584990212.3445978,3,4,-3,-1,0,-1,-2,3
1584990212.3596153,-15,3,-3,-1,1,-2,1,11
1584990212.3596153,5,-2,-3,-6,1,-5,-5,-32
1584990212.361404,-9,-1,-1,-5,-3,-2,-1,-1
1584990212.361404,12,7,1,20,12,-8,2,10
1584990212.3833528,-2,3,1,-21,-10,-12,-6,8
1584990212.3833528,6,-4,0,3,-7,2,7,14
1584990212.3850248,-6,-6,1,-2,-5,7,1,-14
1584990212.3850248,17,8,1,6,2,-6,3,24
1584990212.3970044,18,11,-2,6,6,51,5,40
1584990212.3970044,-48,-18,-1,10,0,-29,-5,-64
1584990212.398653,50,9,4,-26,2,-21,1,36
1584990212.398653,-79,-12,-2,-15,-2,13,-9,-79
1584990212.419513,25,10,-5,13,-5,3,-3,8
1584990212.419513,27,-8,-4,-5,-1,0,3,44
1584990212.4209287,13,13,5,5,4,12,10,62
1584990212.4209287,3,16,11,5,9,12,7,5
1584990212.441995,-11,0,-14,-15,-2,0,-3,-25
1584990212.441995,-12,-8,-2,-6,-2,-3,-1,-12
1584990212.4434278,7,-6,-10,-2,-4,-3,-1,18
1584990212.4434278,17,6,4,5,3,2,1,21
1584990212.4558535,5,5,0,1,2,3,4,14
1584990212.4558535,2,-1,-1,-2,-2,1,0,-2
1584990212.4645479,-34,-9,2,-3,0,-2,-2,-16
1584990212.4645479,5,1,-2,0,-3,0,-3,-2
1584990212.4795074,36,11,0,3,-2,1,5,16
1584990212.4795074,-45,-4,4,-1,0,-2,-2,1
1584990212.4812872,50,4,-1,-1,-3,-5,4,23
1584990212.4812872,-21,-3,-2,-2,1,-4,-9,-17
1584990212.502193,-24,-3,-7,-6,-4,-5,-8,-30
1584990212.502193,34,0,4,3,1,-2,6,33
1584990212.503939,19,12,8,4,6,4,6,6
1584990212.503939,-36,-1,1,0,-1,-2,-4,-4
1584990212.5158064,15,-5,-17,-9,-6,-4,-8,0
1584990212.5158064,-12,-3,-1,0,-3,-1,-1,4
1584990212.5245757,-9,2,3,-1,-1,0,-2,0
1584990212.5245757,-28,0,4,2,-2,0,3,-1
1584990212.5395045,-33,-8,-7,-3,-6,-2,-8,-24
1584990212.5395045,-6,-5,-4,0,0,2,1,-11
1584990212.540944,14,0,5,0,0,3,4,21
1584990212.540944,22,-6,-3,-5,-4,-3,-4,-15
1584990212.562113,-107,-5,-4,0,0,0,0,-14
1584990212.562113,84,2,2,7,1,-4,3,15
1584990212.563936,10,-7,-3,-4,0,1,-1,11
1584990212.563936,-16,-4,0,-1,0,2,2,-12
1584990212.5780416,48,15,2,2,-4,-2,-3,10
1584990212.5780416,-13,-9,-4,-4,1,0,-2,-3
1584990212.5796301,-15,-1,-4,-3,-1,2,1,27
1584990212.5796301,1,-5,2,3,-3,-1,-2,-21
1584990212.5995507,10,-4,-6,-4,-5,-6,-6,-27
1584990212.5995507,-17,-1,-3,0,2,2,1,15
1584990212.6013072,49,4,2,1,0,-3,-2,25
1584990212.6013072,-15,-10,-3,1,1,-1,-2,-4
1584990212.6220822,11,6,1,1,4,-1,0,-3
1584990212.6220822,-17,-6,2,0,0,3,3,4
1584990212.6238673,-29,-4,1,-1,2,2,5,7
1584990212.6238673,28,7,-3,0,-1,1,0,3
1584990212.636355,-28,-4,-4,-10,-8,-9,-3,-18
1584990212.636355,33,1,1,3,-2,1,-2,16
1584990212.6431987,10,0,-1,0,-5,-2,3,7
1584990212.6431987,15,-2,-1,-2,0,-4,1,3
1584990212.6595762,15,7,-2,2,1,7,2,13
1584990212.6595762,1,-3,-3,-1,-3,-6,-1,3
1584990212.661324,15,-2,1,2,-1,4,-1,12
1584990212.661324,0,-3,-1,-2,3,1,-2,0
1584990212.682066,1,3,-2,-3,-2,-1,-2,20
1584990212.682066,14,-5,-1,1,1,0,0,-28
1584990212.6839201,22,-24,-6,-6,-4,-5,-17,-25
1584990212.6839201,-61,-6,-2,-5,-2,-3,-1,-17
1584990212.6957831,11,4,1,0,-3,0,4,10
1584990212.6957831,35,5,-4,5,-2,0,2,18
1584990212.7107995,-34,-7,3,-3,-3,-3,-1,-6
1584990212.7107995,29,16,-5,2,0,-3,0,12
1584990212.7195258,37,4,-3,-1,-3,-1,8,21
1584990212.7195258,4,0,-3,1,2,-1,-1,14
1584990212.7209556,-9,-5,-1,-6,2,-4,-6,-24
1584990212.7209556,-11,2,-1,0,1,0,-1,-9
1584990212.742555,-2,6,2,-1,-1,0,1,26
1584990212.742555,-14,-8,-1,1,-1,3,-2,-4
1584990212.7442453,23,-1,2,0,-4,1,3,-6
1584990212.7442453,-1,-1,-4,1,-2,0,-3,11
1584990212.7558203,-12,5,0,2,3,-1,2,9
1584990212.7558203,3,-3,-4,-2,-2,2,-4,-12
1584990212.7645097,8,2,0,1,-1,2,1,0
1584990212.7645097,15,10,1,1,-4,1,-3,1
1584990212.779579,24,2,-4,-1,-1,-3,2,15
1584990212.779579,38,0,-4,1,-1,2,5,6
1584990212.7812836,-45,-7,2,-3,-2,1,-3,1
1584990212.7812836,20,7,-5,-3,0,1,1,-1
1584990212.8021052,-9,-1,2,1,0,2,5,9
1584990212.8021052,-9,1,1,-3,-3,-6,-2,-11
1584990212.803703,4,5,2,3,5,1,-1,17
1584990212.803703,3,4,1,2,2,1,0,-7
1584990212.8246093,-5,-2,-7,-6,-2,1,2,-12
1584990212.8246093,10,3,8,-1,-3,0,-7,-11
1584990212.8264332,-7,-2,-1,-2,1,-2,-4,-8
1584990212.8264332,16,6,-2,-3,-3,-1,-2,-6
1584990212.8395429,-45,-1,-3,0,-2,-3,-3,-2
1584990212.8395429,24,-2,1,3,-2,-4,-3,3
1584990212.8408988,-11,-9,1,-1,2,-1,-2,-4
1584990212.8408988,4,2,-5,-2,1,2,2,-1
1584990212.862113,7,5,-2,1,4,1,-1,6
1584990212.862113,0,-2,2,-3,0,0,0,7
1584990212.8640332,-3,-4,-1,-7,-1,0,-2,-11
1584990212.8640332,5,3,-1,1,-4,2,0,6
1584990212.8758116,-63,-11,-3,-2,0,-2,-6,-29
1584990212.8758116,17,5,0,2,1,-1,3,8
1584990212.884489,27,-5,-1,-4,-4,-1,2,11
1584990212.884489,-25,3,-1,0,1,0,1,-9
1584990212.899529,45,-1,-4,-2,-3,0,1,-6
1584990212.899529,-24,-4,0,-5,-3,0,-3,8
1584990212.9012196,25,7,7,2,3,1,3,5
1584990212.9012196,-80,-15,-6,-4,1,-4,-9,-28
1584990212.9221148,66,8,-2,1,0,1,2,22
1584990212.9221148,-58,-6,0,-1,1,-3,-5,-23
1584990212.923887,23,2,1,0,1,1,-3,7
1584990212.923887,4,-3,3,2,-3,-1,0,-2
1584990212.9358108,8,12,3,-2,-3,3,0,-2
1584990212.9358108,2,-9,-1,-2,-3,1,-3,12
1584990212.9445596,-6,-4,3,0,-1,-2,0,-14
1584990212.9445596,14,8,-4,1,-2,-4,-1,3
1584990212.959584,-20,0,-3,-1,-1,0,7,7
1584990212.959584,13,-5,3,-1,0,-2,0,-3
1584990212.9613044,8,-4,1,-2,3,0,3,-4
1584990212.9613044,7,2,0,-1,-3,1,-6,0
1584990212.9821203,-29,2,-5,0,-4,-1,2,-13
1584990212.9821203,5,-1,3,-3,-1,-2,-4,16
1584990212.9839723,14,-9,-5,-3,0,-2,0,-13
1584990212.9839723,19,3,-1,0,2,3,1,-3
1584990212.9957993,30,4,0,3,1,1,1,15
1584990212.9957993,-56,-13,-5,-2,-1,-1,-3,-15
1584990213.004534,5,1,-1,-2,1,3,-1,10
1584990213.004534,42,12,-3,3,2,0,-1,18
1584990213.019519,-40,-6,-1,-2,-3,-7,-1,-19
1584990213.019519,2,-7,-3,-1,-2,-3,-5,-1
1584990213.0209436,-3,1,-2,-1,1,0,0,5
1584990213.0209436,1,1,2,0,1,-1,-4,-2
1584990213.0421495,5,4,-4,0,-6,-1,6,7
1584990213.0421495,11,-4,3,-2,-1,2,-1,-8
1584990213.043978,-16,-8,-4,-3,0,5,22,13
1584990213.043978,1,2,-4,-5,1,4,-26,-5
1584990213.055812,7,3,0,-1,-5,-8,1,1
1584990213.055812,-17,-4,-1,-1,-1,-7,-4,-5
1584990213.064519,4,-2,-2,-2,0,7,9,-4
1584990213.064519,4,1,-2,1,3,13,43,6
1584990213.0795138,-16,1,-5,0,0,-6,-19,-7
1584990213.0795138,24,2,3,-3,-3,-15,-34,11
1584990213.0812354,-45,-9,1,-3,-3,-7,-22,-16
1584990213.0812354,22,1,0,-1,-3,2,30,-8
1584990213.1020749,0,1,-2,0,2,9,11,16
1584990213.1020749,8,15,0,1,1,7,20,-1
1584990213.1036553,-5,-8,-3,-1,-3,2,-9,13
1584990213.1036553,15,-4,-2,-2,0,-2,-10,-18
1584990213.1158583,-33,0,-3,-3,0,2,3,-2
1584990213.1158583,-7,-7,0,-4,0,2,1,0
1584990213.124542,2,8,7,2,3,-1,1,10
1584990213.124542,1,4,3,2,-1,2,4,-3
1584990213.139616,6,4,-2,-5,0,-4,-3,7
1584990213.139616,-11,-12,-3,-4,1,-8,-13,-41
1584990213.141421,0,2,1,1,-1,-3,6,28
1584990213.141421,-11,3,2,-3,0,-3,-4,-14
1584990213.162699,3,-3,-5,-1,-1,2,8,1
1584990213.162699,5,-3,1,-4,-4,3,1,1
1584990213.1651473,6,0,1,0,2,-1,-9,-4
1584990213.1651473,-17,-3,-7,0,2,4,9,-9
1584990213.1762114,-1,5,-5,0,1,0,13,5
1584990213.1762114,20,7,-1,2,-1,3,-4,19
1584990213.184514,-3,-8,-1,-3,-4,-13,-27,-15
1584990213.184514,6,0,1,0,-5,-6,3,2
1584990213.1988447,0,-5,-6,-5,-6,1,-1,0
1584990213.1988447,-8,16,6,2,0,9,27,-7
1584990213.1998549,-14,1,6,3,5,10,4,-4
1584990213.1998549,2,15,13,6,4,-5,-5,5
1584990213.2213073,6,3,1,-4,-3,-11,-21,-5
1584990213.2213073,-5,-13,-3,-7,-4,3,2,-12
1584990213.2222366,3,-7,-6,1,5,1,0,3
1584990213.2222366,-1,6,-3,0,-3,1,13,6
1584990213.2441878,6,0,-6,1,5,1,6,5
1584990213.2441878,3,0,4,0,-1,5,3,-10
1584990213.2457652,-3,-5,3,1,2,1,-36,10
1584990213.2457652,1,1,-3,-1,-1,-1,6,-1
1584990213.258759,-2,8,-1,5,0,-3,18,0
1584990213.258759,9,-4,-1,0,-3,-4,-31,12
1584990213.2600534,-1,-3,-1,-1,-4,1,-5,-20
1584990213.2600534,1,4,0,0,0,2,10,9
1584990213.2813203,3,-4,-6,0,0,1,6,3
1584990213.2813203,4,-1,5,1,3,1,-36,-2
1584990213.2823918,-6,-5,1,0,-4,4,55,-1
1584990213.2823918,3,-1,-2,1,-3,-8,-62,-1
1584990213.304246,18,-3,-4,-1,-6,-5,7,-8
1584990213.304246,-43,-3,6,-1,-3,5,24,-6
1584990213.311307,32,-4,-4,-3,0,2,2,9
1584990213.311307,-9,0,-7,1,-1,-1,-9,-6
1584990213.318806,21,2,1,2,-2,-1,6,13
1584990213.318806,-18,-5,-2,-1,4,3,5,-9
1584990213.3196876,-22,-2,0,0,3,-1,2,-8
1584990213.3196876,19,3,3,-2,-3,-3,-4,-1
1584990213.3412936,5,10,-2,1,3,4,1,-1
1584990213.3412936,13,4,7,-2,1,-3,-3,7
1584990213.342368,2,-3,-1,3,0,0,7,-15
1584990213.342368,1,1,-1,1,0,-1,-8,0
1584990213.3638027,-8,-6,-1,-1,-5,-7,-7,-1
1584990213.3638027,15,-4,0,-2,-2,4,37,1
1584990213.365062,3,2,1,2,1,-2,-33,13
1584990213.365062,-4,-2,-1,-5,-7,-10,-7,-16
1584990213.3788407,10,-3,-1,0,4,4,5,-21
1584990213.3788407,-27,-9,-2,-3,0,0,2,14
1584990213.3800132,2,1,2,1,-1,-2,4,-1
1584990213.3800132,4,0,-2,1,2,-4,-20,-4
1584990213.401116,20,-1,-3,-3,0,-9,-11,-3
1584990213.401116,-18,-8,-1,-1,-1,2,7,-1
1584990213.409013,7,-4,0,-3,1,2,-38,3
1584990213.409013,-15,3,0,-1,4,1,7,-6
1584990213.4248416,11,-2,-3,2,1,1,2,1
1584990213.4248416,10,6,5,0,-4,-7,-22,5
1584990213.4313574,9,-4,1,-1,1,-4,-23,2
1584990213.4313574,16,-8,-4,-6,-4,-6,4,-8
1584990213.4387894,-7,-1,2,0,3,0,-31,3
1584990213.4387894,7,1,-4,-2,-3,-5,23,-4
1584990213.4397187,-20,0,-5,-2,-2,7,-19,10
1584990213.4397187,16,-1,-3,-3,-1,-25,-9,0
1584990213.4613254,20,1,2,0,10,5,9,-20
1584990213.4613254,-71,-32,-4,-10,-10,-10,9,-17
1584990213.462377,9,5,7,-3,-22,-9,-49,-9
1584990213.462377,-8,-13,-7,-7,16,3,13,-71
1584990213.4837797,16,-5,1,6,9,12,11,18
1584990213.4837797,-14,1,6,4,1,11,2,8
1584990213.485016,27,-5,0,-15,-5,-13,1,-8
1584990213.485016,-40,-9,-10,3,-6,-20,-40,-16
1584990213.4987695,17,1,-2,8,-2,10,47,3
1584990213.4987695,28,5,0,-31,-33,-15,33,17
1584990213.500008,-7,0,4,13,24,18,6,5
1584990213.500008,2,27,9,8,15,-1,-30,-16
1584990213.5213006,1,-13,-1,-12,-40,-33,-25,1
1584990213.5213006,1,-32,-7,2,9,5,11,1
1584990213.5224261,-1,21,5,5,16,0,-26,-7
1584990213.5224261,16,-19,-23,11,31,35,33,21
1584990213.5451767,-14,-11,1,1,35,14,16,-11
1584990213.5451767,0,17,15,-15,-127,-38,12,30
1584990213.5466297,28,-27,-10,-9,-27,-55,-26,-15
1584990213.5466297,-21,-4,-3,-4,8,18,7,-39
1584990213.5588562,-10,-28,-16,-5,12,21,50,-20
1584990213.5588562,14,19,1,-3,14,26,17,19
1584990213.5604408,-22,-20,12,3,20,23,17,-7
1584990213.5604408,-4,-14,-13,3,24,25,16,9
1584990213.5812497,17,48,17,-5,-69,-30,0,22
1584990213.5812497,8,-10,1,2,-5,1,-9,-26
1584990213.5829923,-14,-16,-6,8,69,51,55,30
1584990213.5829923,15,31,7,-15,-128,-96,-31,-19
1584990213.603762,1,-20,-27,-16,16,23,32,-7
1584990213.603762,-24,-3,-6,-7,-6,-27,-72,-31
1584990213.6046965,-39,-8,9,14,38,44,40,0
1584990213.6046965,39,-3,-20,-5,-17,12,-25,-30
1584990213.6269977,-24,-128,-2,-14,-17,10,49,31
1584990213.6269977,78,65,40,36,53,2,-94,-94
1584990213.6283014,-63,105,27,-38,-36,-47,-100,-46
1584990213.6283014,67,57,1,10,-21,10,92,-11
1584990213.6413043,7,-128,-17,-3,-4,-4,21,57
1584990213.6413043,63,-121,-26,0,26,46,9,28
1584990213.6422215,-9,127,56,34,124,34,-128,13
1584990213.6422215,-37,-54,4,11,-51,28,56,-7
1584990213.6637948,33,-85,-21,-35,-128,-84,-8,28
1584990213.6637948,5,-26,-31,-59,-98,-51,-128,18
1584990213.6650257,-78,117,30,12,-44,-25,31,-42
1584990213.6650257,16,-13,-13,11,41,14,40,14
1584990213.6874843,12,46,8,40,52,67,40,-5
1584990213.6874843,18,-80,-27,-21,10,-7,79,-12
1584990213.688405,-71,-4,-1,12,91,44,-4,-25
1584990213.688405,-16,41,-10,-22,-29,-9,-30,-18
1584990213.7013319,-56,-3,-23,-7,23,-21,39,-13
1584990213.7013319,-16,3,-1,2,-12,-50,-44,-15
1584990213.7023845,63,-31,11,11,35,58,51,70
1584990213.7023845,-83,-108,-24,-18,-101,-54,-14,-31
1584990213.7251742,52,97,19,13,53,41,-72,-27
1584990213.7251742,-45,-46,9,27,66,76,127,-17
1584990213.7268534,24,-6,-2,3,-14,-42,-81,-26
1584990213.7268534,5,31,-1,-6,38,65,68,-75
1584990213.7387285,18,15,1,-9,-35,-13,-110,20
1584990213.7387285,-40,-91,-18,-8,27,-25,-128,-37
1584990213.7395356,-7,16,11,5,5,19,-108,52
1584990213.7395356,6,-7,-18,12,66,1,1,4
1584990213.7613163,18,-57,12,-6,-59,-9,86,-12
1584990213.7613163,21,23,7,2,4,2,31,12
1584990213.7626176,-11,4,-12,15,119,48,30,16
1584990213.7626176,43,-18,-8,7,-38,-15,-110,-12
1584990213.783948,-25,-40,-8,-20,-37,-19,-67,-16
1584990213.783948,-53,70,29,16,0,23,30,-1
1584990213.7872088,-28,-128,-24,-13,-5,-8,30,-20
1584990213.7872088,127,127,35,45,127,56,127,75
1584990213.7987342,-115,-128,-5,-38,-110,-41,-85,-11
1584990213.7987342,43,83,6,9,28,25,13,-33
1584990213.8003352,42,-56,-20,4,9,-24,69,22
1584990213.8003352,-45,59,8,36,34,13,3,-28
1584990213.8217611,-12,-46,-17,-42,-86,-14,33,4
1584990213.8217611,44,-64,-4,21,36,19,-63,-19
1584990213.823159,-4,89,2,0,27,9,0,-11
1584990213.823159,-11,-33,-6,-20,-37,-9,11,-30
1584990213.8519647,3,17,-3,2,24,13,127,38
1584990213.8519647,8,-2,3,9,65,-8,-128,-42
1584990213.85333,-53,-2,-11,-20,-20,10,1,-8
1584990213.85333,18,-56,-14,-4,12,-42,127,16
1584990213.8591297,36,26,4,-8,-54,-34,-13,11
1584990213.8591297,14,-112,-12,5,6,-7,16,25
1584990213.8602247,76,126,41,30,34,19,12,-4
1584990213.8602247,-5,106,9,4,-37,27,12,16
1584990213.881299,45,21,2,2,29,8,33,45
1584990213.881299,-12,28,3,-9,-26,-35,-51,-31
1584990213.8826728,41,21,-7,11,53,36,37,18
1584990213.8826728,-112,-52,1,10,-26,-8,3,-39
1584990213.9038217,127,-34,-31,-24,-26,12,-23,-13
1584990213.9038217,-128,127,87,4,-128,-90,-25,-44
1584990213.9047267,34,-58,-18,4,63,64,127,15
1584990213.9047267,10,-59,-23,-39,-123,-61,89,-4
1584990213.9187994,10,-1,-6,19,61,58,17,2
1584990213.9187994,5,7,0,7,28,36,64,7
1584990213.9200983,-13,4,-3,3,-26,-14,3,-12
1584990213.9200983,-6,13,-9,-10,33,39,39,-6
1584990213.9412959,-13,9,-1,3,-17,-27,-12,-12
1584990213.9412959,-11,5,7,10,10,2,-89,-37
1584990213.9423718,-11,-41,-16,-9,-5,8,-30,3
1584990213.9423718,-1,23,17,2,21,28,35,20
1584990213.963705,31,86,10,2,0,7,-7,42
1584990213.963705,51,-107,-7,6,24,10,-33,-15
1584990213.964511,35,47,10,3,5,-19,7,-14
1584990213.964511,-34,-56,-14,11,49,8,-30,15
1584990213.978156,48,-128,-50,-46,-21,-1,4,-28
1584990213.978156,-128,119,58,-7,-61,-31,-26,4
1584990213.986313,34,-23,-8,20,-25,-33,-42,-11
1584990213.986313,4,-22,-4,1,-3,11,-54,-11
1584990214.0013041,10,-7,-5,-31,13,13,27,20
1584990214.0013041,6,6,0,53,-18,-1,8,1
1584990214.0023897,-1,8,2,-23,66,30,-2,-2
1584990214.0023897,5,5,7,46,-8,-10,27,9
1584990214.0238247,-2,-8,-11,-82,-92,-17,-6,2
1584990214.0238247,-4,-3,-5,3,42,19,4,0
1584990214.0252116,-1,4,8,23,10,1,-18,-6
1584990214.0252116,-3,0,-6,-8,-17,-17,9,-18
1584990214.0469573,-4,-11,-2,17,13,4,-5,7
1584990214.0469573,53,42,16,19,-30,-3,-2,51
1584990214.0482264,-22,30,13,6,5,-16,1,-2
1584990214.0482264,-2,-4,-6,17,18,22,-15,-35
1584990214.0612726,-2,-3,-4,-16,-14,-7,0,-26
1584990214.0612726,-1,-8,-5,1,-7,-4,-1,21
1584990214.0623004,16,-24,-8,3,4,-3,-8,-16
1584990214.0623004,3,57,13,22,29,5,10,37
1584990214.0838208,1,1,1,19,-19,104,15,-3
1584990214.0838208,-17,-16,-2,-18,26,-95,-26,-49
1584990214.0851,-12,-9,1,-19,-120,-12,7,7
1584990214.0851,-4,4,-7,20,127,-32,-3,-7
1584990214.1070247,15,-2,6,-3,6,25,3,11
1584990214.1070247,13,6,6,27,0,-3,-1,-31
1584990214.1079187,-17,1,-1,-20,-18,13,5,24
1584990214.1079187,9,0,0,10,6,-3,3,-19
1584990214.129498,31,-3,0,0,-6,-1,-12,-6
1584990214.129498,-23,-3,2,3,-1,-1,0,-14
1584990214.130725,10,3,-4,3,5,1,8,30
1584990214.130725,1,20,5,4,2,-3,-1,-9
1584990214.1438828,41,-10,-9,-3,0,-3,-2,10
1584990214.1438828,-62,-19,-13,-6,-6,-2,1,-12
1584990214.1453505,41,14,7,1,3,-5,2,4
1584990214.1453505,-1,20,-3,0,2,3,-1,14
1584990214.1669478,-14,-1,4,0,4,1,4,-4
1584990214.1669478,-85,-12,-5,33,13,26,-5,-46
1584990214.1682956,24,-4,-4,-32,-35,-22,-4,-46
1584990214.1682956,-32,3,2,7,14,7,5,22
1584990214.1813054,8,-10,-7,-25,-7,4,2,-13
1584990214.1813054,40,11,4,47,0,35,-5,42
1584990214.182404,22,0,0,-16,-3,2,4,7
1584990214.182404,-23,10,0,3,-8,1,-2,30
1584990214.2038023,20,-7,-8,-15,18,-11,-8,-31
1584990214.2038023,-23,0,2,3,-9,12,28,18
1584990214.204671,-23,-12,-1,-1,-2,19,10,-50
1584990214.204671,73,-5,-9,-6,-8,-6,-11,21
1584990214.2269926,-29,9,4,0,1,-1,2,27
1584990214.2269926,31,0,4,4,-3,2,0,-2
1584990214.228208,-19,1,-3,-6,0,0,1,8
1584990214.228208,-35,-3,-5,2,-3,0,2,5
1584990214.2417781,-76,-2,-4,-5,-4,-2,0,6
1584990214.2417781,67,6,8,1,-1,1,-2,12
1584990214.2431211,2,-7,-5,-5,-3,-1,2,-22
1584990214.2431211,-20,-24,-13,-6,-3,-5,-7,-7
1584990214.2641768,4,16,2,3,0,2,1,2
1584990214.2641768,33,-1,-1,2,3,0,0,23
1584990214.271273,-44,-9,-1,0,1,1,1,-7
1584990214.271273,-40,-15,-6,1,1,-2,-6,-13
1584990214.2869725,-40,-9,-10,-12,-5,-2,1,-14
1584990214.2869725,54,15,7,6,-2,-4,0,15
1584990214.2882955,36,2,0,6,-5,1,4,14
1584990214.2882955,17,12,5,2,7,-1,2,5
1584990214.302625,-13,-10,-5,-1,-2,5,1,8
1584990214.302625,21,6,1,7,1,5,6,23
1584990214.3039525,-11,-12,-5,-4,0,8,-6,-37
1584990214.3039525,-16,4,0,-2,-1,-5,1,11
1584990214.3238432,-22,1,4,0,2,0,6,15
1584990214.3238432,49,4,4,4,3,6,0,21
1584990214.3252795,-20,-12,0,-6,-2,1,-4,-9
1584990214.3252795,27,8,-6,-3,-5,-4,1,15
1584990214.3469648,-72,0,3,4,2,-1,-5,-39
1584990214.3469648,19,-10,1,0,3,-1,-3,37
1584990214.3482776,16,7,5,-2,1,-3,-3,2
1584990214.3482776,-25,-4,-4,3,0,-4,-3,-22
1584990214.3612614,-32,-17,-7,-1,-1,-3,-6,-13
1584990214.3612614,-4,7,6,0,-3,0,1,-7
1584990214.3622763,46,4,-1,-3,1,0,0,13
1584990214.3622763,-25,-9,-1,9,4,1,-1,-6
1584990214.3838058,21,-1,-1,-11,-11,2,-1,-16
1584990214.3838058,-10,-1,3,-9,5,-1,0,-2
1584990214.385054,2,2,-2,-23,6,0,0,13
1584990214.385054,20,2,1,2,1,3,2,5
1584990214.4067662,-21,3,3,15,2,-1,2,5
1584990214.4067662,51,-2,-2,-1,-7,-12,-2,22
1584990214.40767,-27,-4,0,-3,1,6,-3,-15
1584990214.40767,22,5,-3,1,2,2,3,-7
1584990214.422677,40,0,-2,0,3,-1,0,12
1584990214.422677,-28,-6,2,-4,0,-2,-7,5
1584990214.4235528,-17,-3,2,2,1,1,4,7
1584990214.4235528,61,5,-8,-2,-7,-3,-6,-35
1584990214.4438598,24,3,3,3,1,-1,-4,6
1584990214.4438598,-87,-25,-4,-7,-2,-7,-3,-44
1584990214.4453788,-23,-2,-1,-1,2,1,0,22
1584990214.4453788,21,8,-1,1,-1,1,5,6
1584990214.466334,-2,-3,2,0,-3,-4,0,6
1584990214.466334,5,-2,3,0,1,0,1,3
1584990214.4675775,5,1,-1,18,2,0,3,15
1584990214.4675775,-4,3,-3,-29,-12,-9,-4,-10
1584990214.4812438,22,-1,1,5,2,0,1,1
1584990214.4812438,0,-7,-2,-2,-5,4,-2,5
1584990214.4820662,7,2,0,1,2,2,3,12
1584990214.4820662,-12,-1,-6,-6,-6,-5,3,-16
1584990214.5037522,12,5,2,6,0,-2,-2,-10
1584990214.5037522,-51,-10,1,0,2,-5,1,-5
1584990214.5050833,18,0,-2,-1,3,6,-3,-8
1584990214.5050833,3,12,3,-1,1,-3,5,15
1584990214.5269535,19,2,-1,-3,-1,-3,0,5
1584990214.5269535,-39,-13,4,-1,2,0,1,-12
1584990214.5278938,42,5,2,3,2,1,-2,8
1584990214.5278938,-4,-1,-5,-3,-3,-2,-5,10
1584990214.5412548,-7,-8,1,2,-3,1,-1,-19
1584990214.5412548,22,1,2,-1,1,0,7,12
1584990214.5423646,-19,-6,-3,1,-2,-3,-6,-3
1584990214.5423646,44,10,3,4,0,3,2,8
1584990214.5637515,-45,-1,1,2,0,2,2,-5
1584990214.5637515,4,-4,0,3,5,-1,6,-3
1584990214.5650437,15,0,-1,0,-4,0,4,20
1584990214.5650437,24,-1,-5,-9,-1,-4,-6,-32
1584990214.5869505,-43,3,-3,7,5,-5,0,10
1584990214.5869505,19,-11,1,-11,-4,0,3,-6
1584990214.5881872,7,-1,1,4,1,-2,0,0
1584990214.5881872,27,9,0,4,3,-2,5,18
1584990214.6012826,-63,-6,0,-2,4,-4,-4,-2
1584990214.6012826,16,1,-1,2,-1,-2,-1,-15
1584990214.6022575,12,2,-2,0,-2,-3,1,5
1584990214.6022575,7,5,1,4,4,-1,6,11
1584990214.623802,-21,-13,-7,-5,-3,-3,-11,-15
1584990214.623802,-11,0,1,1,1,1,7,26
1584990214.6246946,6,2,1,0,0,1,3,-23
1584990214.6246946,-17,-8,0,-1,-1,-3,-5,-2
1584990214.6469939,12,-2,-7,-5,-3,-6,-4,-18
1584990214.6469939,-45,-8,1,-2,0,1,3,11
1584990214.648247,18,3,0,2,-2,1,0,-1
1584990214.648247,-35,-4,-2,-3,1,-1,4,0
1584990214.6612594,7,-1,-1,2,-3,-2,2,13
1584990214.6612594,8,-7,-5,-4,-1,-4,-2,-20
1584990214.6622577,2,16,1,3,1,1,1,24
1584990214.6622577,16,-10,-1,-1,-2,-2,-5,-4
1584990214.683758,3,2,-2,-6,-2,2,2,1
1584990214.683758,-1,-5,-4,12,8,-1,-1,19
1584990214.6849797,26,4,1,3,-6,0,2,13
1584990214.6849797,-60,-9,1,12,0,-5,-8,-20
1584990214.7069535,19,11,4,-22,-12,-3,-3,9
1584990214.7069535,5,-5,0,5,0,-1,2,7
1584990214.7078369,20,9,0,1,-1,-1,-2,13
1584990214.7078369,-3,6,3,4,2,-1,2,8
1584990214.7212799,-58,-10,1,3,0,1,0,-25
1584990214.7212799,20,5,9,-1,-1,1,4,8
1584990214.7223833,-7,-6,-5,-1,-2,2,-6,28
1584990214.7223833,-4,-5,-3,0,-2,1,0,-42
1584990214.743825,7,-7,-7,-3,-3,-4,-5,0
1584990214.743825,13,1,1,-2,-1,0,0,15
1584990214.7451153,-26,-1,2,3,-1,1,-1,-15
1584990214.7451153,16,2,-5,-2,0,0,-1,6
1584990214.76695,-72,-5,-2,-1,0,0,1,2
1584990214.76695,17,-5,1,-3,-3,-2,-2,-20
1584990214.76823,-15,1,0,1,1,4,2,3
1584990214.76823,11,7,3,-2,-2,-2,-4,13
1584990214.7812967,2,-10,-5,-4,-4,-1,-4,-11
1584990214.7812967,-6,0,0,-1,4,0,1,-1
1584990214.7822816,-21,-4,-4,-2,-1,-1,1,-2
1584990214.7822816,25,10,3,1,0,-2,1,2
1584990214.8037195,1,5,3,2,-2,-4,-5,-7
1584990214.8037195,-10,-10,-5,0,2,1,-2,-1
1584990214.8046207,-17,-3,0,-4,2,1,0,-5
1584990214.8046207,4,10,6,1,0,-1,0,6
1584990214.8269541,6,-11,-4,1,-1,0,3,5
1584990214.8269541,-24,16,7,1,1,-2,-5,-37
1584990214.8278832,-10,1,-1,0,-1,-1,-1,7
1584990214.8278832,6,-1,-2,2,-3,2,2,8
1584990214.841262,21,-8,-3,-1,1,-3,-7,-17
1584990214.841262,9,3,1,-2,1,-2,1,13
1584990214.842333,4,5,-1,-1,2,-2,1,11
1584990214.842333,1,5,1,-2,-4,1,1,1
1584990214.8638668,8,-5,3,2,-1,-3,-2,-10
1584990214.8638668,-15,-2,-2,-4,5,-1,4,1
1584990214.8653145,17,2,-1,3,-3,-1,-2,1
1584990214.8653145,-34,-7,0,1,-1,-2,-1,-19
1584990214.886954,5,5,-2,0,5,2,4,10
1584990214.886954,6,-5,-1,-4,0,-1,-5,7
1584990214.8882687,4,2,0,1,-1,3,7,-5
1584990214.8882687,-2,-6,-2,1,-3,1,-3,-1
1584990214.9006152,4,5,8,0,1,-1,-2,2
1584990214.9006152,-5,-4,-3,-2,0,-5,-27,0
1584990214.9089627,1,-1,-4,-2,-2,-5,23,-1
1584990214.9089627,22,-1,-9,-1,-1,-1,1,0
1584990214.9237237,-34,10,16,4,1,4,-15,2
1584990214.9237237,19,4,-7,-3,-2,-1,25,0
1584990214.9245694,11,-7,-1,0,-1,0,4,-5
1584990214.9245694,-20,2,-6,1,-2,0,-6,8
1584990214.9469273,18,1,-5,-2,-2,1,7,0
1584990214.9469273,3,-6,2,0,1,1,-2,-11
1584990214.9481719,-3,1,7,0,1,-1,4,11
1584990214.9481719,-10,0,-3,1,-3,-2,2,-11
1584990214.970095,5,-2,0,-2,-1,0,-3,2
1584990214.970095,-1,-2,0,-3,2,-1,1,6
1584990214.9713736,-3,2,-5,-1,-2,-1,-2,-7
1584990214.9713736,-3,3,-3,-3,-4,-1,-7,3
1584990214.984195,2,-4,-4,-1,-3,3,3,2
1584990214.984195,-1,3,-1,-2,-1,2,1,-3
1584990214.9913087,0,3,0,3,4,2,7,-1
1584990214.9913087,-3,2,3,4,-2,-2,-7,-15
1584990215.006916,0,1,-2,-3,1,-3,-25,6
1584990215.006916,-2,-9,-10,-2,-1,2,16,1
1584990215.0078053,0,13,8,2,3,3,-4,3
1584990215.0078053,2,-2,-5,-2,-6,-13,13,-6
1584990215.0294874,-5,-16,-4,-3,4,-1,7,5
1584990215.0294874,21,19,10,1,1,4,-4,14
1584990215.0308857,-16,-1,1,1,2,4,3,-9
1584990215.0308857,8,4,-7,1,-4,1,-7,6
1584990215.0438218,-11,-11,6,1,-2,-6,1,-1
1584990215.0438218,17,7,2,2,2,-1,-8,12
1584990215.0451686,-9,-5,-5,-2,-2,1,9,-16
1584990215.0451686,10,5,1,1,-1,-1,0,18
1584990215.0667772,-10,6,4,0,4,4,10,-16
1584990215.0667772,-4,-1,1,-1,4,4,-9,2
1584990215.0737867,-2,-4,0,1,0,-1,3,3
1584990215.0737867,1,2,-3,0,-2,-2,4,0
1584990215.089479,1,-2,2,-1,-3,-1,-3,6
1584990215.089479,2,1,2,0,1,3,9,1
1584990215.0903606,1,0,0,0,1,-1,-14,-1
1584990215.0903606,1,9,1,-1,0,3,22,1
1584990215.1037724,-5,-7,1,0,-1,7,-7,3
1584990215.1037724,-2,1,1,-4,0,-5,-24,-5
1584990215.1049871,2,-2,-4,-4,-3,2,13,0
1584990215.1049871,0,3,3,3,3,-1,-32,-1
1584990215.1269379,1,-6,-5,-1,-3,-9,-8,8
1584990215.1269379,-5,-1,-1,-3,-3,2,15,-2
1584990215.1277955,11,0,-1,-2,-1,2,4,5
1584990215.1277955,3,10,6,6,0,-4,-14,-1
1584990215.1496675,1,-3,2,2,-5,-1,2,-15
1584990215.1496675,13,4,2,-1,1,3,10,8
1584990215.1509488,-2,-5,-6,-5,-1,4,8,-11
1584990215.1509488,2,-1,-2,-1,-4,-1,-8,14
1584990215.163925,14,-2,0,0,-1,-1,15,9
1584990215.163925,-9,-7,1,-1,-1,-1,-8,-4
1584990215.16501,-13,0,-5,-2,-1,6,22,4
1584990215.16501,12,6,2,2,-1,-6,-38,0
1584990215.186949,-15,-6,-6,-6,-4,-5,9,-9
1584990215.186949,8,3,5,-1,0,5,10,-3
1584990215.188213,-9,0,0,1,2,-4,-10,0
1584990215.188213,10,6,0,4,-1,-3,6,4
1584990215.2109094,3,-1,0,1,8,9,4,11
1584990215.2109094,-5,-8,-3,-6,-4,-5,-14,-11
1584990215.2113895,6,0,3,0,-4,-8,-24,-5
1584990215.2113895,-18,3,-3,1,-3,0,66,-5
1584990215.2238204,12,-3,-1,-2,-2,-1,-19,8
1584990215.2238204,9,10,1,0,3,8,40,3
1584990215.2246447,-4,0,-4,1,5,-2,-37,1
1584990215.2246447,4,7,5,1,0,0,9,-1
1584990215.2463872,6,-3,-1,-1,-1,2,4,0
1584990215.2463872,-2,-3,-2,-3,0,1,1,12
1584990215.247226,5,4,-2,-1,2,3,-10,-6
1584990215.247226,12,0,-3,4,3,-4,23,11
1584990215.2695017,-11,-8,-6,-4,-8,-8,-40,1
1584990215.2695017,6,8,3,0,-5,9,78,0
1584990215.270424,8,7,2,7,15,14,-10,18
1584990215.270424,9,1,3,-4,-11,-23,-5,3
1584990215.2837553,-5,-17,-2,-8,-10,-8,-3,-10
1584990215.2837553,4,5,-2,-1,-3,5,40,24
1584990215.2850716,-22,0,4,2,10,16,-21,-4
1584990215.2850716,-4,-5,-4,10,4,7,39,4
1584990215.3062541,-2,3,6,-11,-7,7,-6,-19
1584990215.3062541,10,0,2,11,-3,-11,-91,-4
1584990215.3071709,1,-4,-4,-18,3,-5,-18,-10
1584990215.3071709,-2,2,0,3,8,3,13,7
1584990215.329475,10,4,1,5,3,3,24,16
1584990215.329475,7,-8,1,2,2,4,-1,6
1584990215.3308454,-6,0,-1,1,0,-2,-19,-11
1584990215.3308454,-8,0,-7,0,-5,-2,2,0
1584990215.3435757,9,12,7,5,1,2,17,-5
1584990215.3435757,0,-16,-10,-5,-1,-1,-16,-4
1584990215.3512568,-26,-3,-5,-2,16,1,-10,-9
1584990215.3512568,14,23,18,1,-11,-17,35,1
1584990215.3662574,9,-5,-3,-11,-24,-45,-30,-2
1584990215.3662574,-5,-13,-4,-5,-17,-10,-32,-11
1584990215.367541,2,2,-4,2,6,0,27,6
1584990215.367541,6,7,-1,4,7,6,-19,7
1584990215.3894432,-5,-11,-7,-3,-1,0,-16,-12
1584990215.3894432,-7,13,6,0,6,2,-11,-3
1584990215.3903282,-2,11,0,1,-2,6,6,3
1584990215.3903282,-2,0,-3,-2,-1,0,6,-5
1584990215.4037447,17,0,-2,1,2,1,5,3
1584990215.4037447,14,-34,-10,0,-3,-1,-3,15
1584990215.4050753,-19,52,39,1,14,5,-17,-26
1584990215.4050753,7,-2,-10,-5,-7,14,12,18
1584990215.4262445,10,-9,-8,-6,-17,-16,-8,-29
1584990215.4262445,-24,-23,-14,-17,-7,-5,-30,1
1584990215.4271524,-14,-1,-6,-14,35,-4,17,2
1584990215.4271524,26,-8,-16,-14,24,24,15,3
1584990215.449456,6,20,22,26,38,80,126,15
1584990215.449456,-16,-33,-4,-50,-128,-128,-128,-64
1584990215.4507406,0,10,-10,24,72,42,-27,-6
1584990215.4507406,6,11,-4,3,127,95,34,30
1584990215.4638197,-8,-17,9,9,-103,-88,83,0
1584990215.4638197,-2,-10,-7,-20,-54,33,15,-26
1584990215.4652226,-8,2,-1,-5,-5,-6,6,12
1584990215.4652226,18,10,8,-7,-20,-26,21,-24
1584990215.486251,-29,4,4,6,11,15,6,18
1584990215.486251,-10,39,1,2,9,4,-16,-29
1584990215.4870663,-67,-48,-15,-5,-30,-22,-2,34
1584990215.4870663,20,112,4,1,-6,-5,-5,-2
1584990215.5170107,5,43,-7,-11,4,-13,-23,-26
1584990215.5170107,38,-14,-2,4,3,1,9,52
1584990215.5179381,-25,-76,-26,5,37,7,-9,-39
1584990215.5179381,-32,-13,-7,-41,-63,-18,-68,21
1584990215.5239549,17,4,-6,5,-5,-38,5,-23
1584990215.5239549,-11,-20,5,-8,16,16,12,5
1584990215.5244825,7,7,-4,7,3,43,66,62
1584990215.5244825,2,6,2,13,-12,-40,78,-4
1584990215.54629,2,9,10,8,0,24,-27,1
1584990215.54629,21,-58,-8,1,27,38,43,29
1584990215.547525,-44,101,10,-23,-34,54,124,-47
1584990215.547525,-10,-47,-21,-8,-4,4,-64,-9
1584990215.5693483,37,-5,-2,2,6,10,-22,4
1584990215.5693483,-45,6,3,1,-3,-16,-34,-14
1584990215.5705078,26,-11,-11,6,5,9,25,12
1584990215.5705078,-5,120,17,4,-7,3,79,4
1584990215.5836916,6,8,1,-5,2,5,16,-13
1584990215.5836916,9,-19,-3,-7,-11,-42,-106,-8
1584990215.5847998,-7,-39,-23,-15,-6,-1,32,9
1584990215.5847998,4,-44,-15,-9,4,8,-43,-62
1584990215.606216,26,23,7,-9,-48,-7,93,38
1584990215.606216,-40,-27,-7,-2,1,-3,-40,-107
1584990215.607546,1,11,-3,1,24,-18,-4,14
1584990215.607546,-3,-23,-4,7,19,40,3,2
1584990215.629504,-4,10,6,-5,8,-17,1,-19
1584990215.629504,4,-6,-6,-3,-20,-10,5,-7
1584990215.6308892,-7,-1,-1,-10,10,5,9,13
1584990215.6308892,8,-5,0,34,46,5,17,-2
1584990215.6442158,15,1,9,-18,-1,-27,-63,-5
1584990215.6442158,-9,-17,-9,2,-15,-3,-8,4
1584990215.6455,-7,46,7,4,-3,-4,24,1
1584990215.6455,-19,6,2,5,21,-4,6,-8
1584990215.6662793,0,-8,0,-1,3,-5,-4,-1
1584990215.6662793,-1,-31,-14,-6,-2,-1,1,0
1584990215.6675339,38,35,-5,-2,2,-3,22,-7
1584990215.6675339,-50,1,13,4,7,18,7,-16
1584990215.6894264,-17,7,-10,-21,-21,-21,-72,-10
1584990215.6894264,22,-25,-9,-3,-5,-4,0,2
1584990215.6903975,3,-6,-4,6,-3,0,7,6
1584990215.6903975,11,6,1,14,24,12,-3,13
1584990215.70418,-3,-4,2,3,-2,6,60,4
1584990215.70418,4,7,-3,-9,-9,-12,-10,1
1584990215.7112982,8,14,6,13,38,52,-3,6
1584990215.7112982,-2,-6,-3,-4,-24,-46,-34,-5
1584990215.72624,6,23,9,-3,60,52,68,8
1584990215.72624,-5,-18,0,-17,-43,-50,-30,-4
1584990215.727125,0,4,-2,5,3,-1,-7,1
1584990215.727125,0,7,0,6,7,-2,-6,-3
1584990215.7494812,-5,-3,-1,5,4,6,2,3
1584990215.7494812,-4,-25,-5,-2,0,-1,6,-5
1584990215.7509456,-11,38,10,1,7,10,7,-1
1584990215.7509456,8,11,-4,-3,-3,-7,-19,-10
1584990215.7718468,9,-24,-7,-3,-2,2,6,3
1584990215.7718468,-7,3,-4,-1,-4,-9,-11,-2
1584990215.7730384,-5,-7,4,-2,6,8,33,-4
1584990215.7730384,-59,32,3,-1,-7,-12,-10,-12
1584990215.7859375,14,-18,-3,-1,-11,1,1,-1
1584990215.7859375,1,-7,0,-1,-6,5,5,-4
1584990215.7937613,9,-6,-1,7,25,-4,-3,-1
1584990215.7937613,-10,-4,-1,-17,-1,-4,-5,0
1584990215.8094525,-4,-10,1,4,-17,-9,5,-6
1584990215.8094525,3,6,2,14,-13,3,-11,10
1584990215.810341,0,-2,2,12,33,26,5,-2
1584990215.810341,3,9,-4,-2,-16,-14,-10,-6
1584990215.823082,-11,-18,-13,-31,29,5,-16,-5
1584990215.823082,-4,-1,1,4,0,-3,3,1
1584990215.8312478,-3,2,-4,0,-5,-4,0,1
1584990215.8312478,0,4,5,-2,-8,-2,-21,2
1584990215.8462415,8,-3,1,0,-3,-1,6,4
1584990215.8462415,-1,-6,0,-12,-3,1,4,3
1584990215.847472,4,2,0,1,-2,0,2,7
1584990215.847472,-10,0,-1,2,-4,1,2,-10
1584990215.8695133,-5,0,1,0,1,-1,2,-5
1584990215.8695133,19,-3,-1,-4,1,1,-1,-6
1584990215.8708813,-5,-1,3,2,-4,0,3,3
1584990215.8708813,17,8,-1,-3,3,-5,-5,7
1584990215.8831153,-29,-9,-1,-1,4,0,2,7
1584990215.8831153,4,4,1,4,4,0,-5,12
1584990215.8912973,30,1,-1,6,-19,-1,-1,-2
1584990215.8912973,-39,1,-1,-19,3,-3,3,-7
1584990215.906219,2,-17,-5,21,3,-8,-7,-22
1584990215.906219,-7,6,-5,-31,-5,-3,1,18
1584990215.9075487,29,5,1,17,1,-8,-4,-8
1584990215.9075487,-21,1,-2,-2,-13,3,-3,-11
1584990215.9369152,14,6,5,-14,-13,1,5,51
1584990215.9369152,-22,-20,-12,-8,-7,1,-10,-41
1584990215.9383268,11,-9,-4,1,-4,-17,-15,-57
1584990215.9383268,-30,8,1,4,-2,-2,3,9
1584990215.9519145,36,6,1,20,11,8,14,52
1584990215.9519145,-45,-34,-7,-24,-10,-8,-21,-96
1584990215.9531739,-5,11,-2,-4,0,-1,-5,2
1584990215.9531739,-29,-5,-4,11,-1,5,4,9
1584990215.9662716,33,1,4,-4,3,4,2,15
1584990215.9662716,-8,-11,-1,-9,-12,-6,-11,-66
1584990215.9675508,8,3,-7,3,-3,-1,-5,-10
1584990215.9675508,22,13,6,6,4,-1,7,28
1584990215.9894388,-18,0,1,1,6,3,1,-6
1584990215.9894388,-3,-1,-1,18,-2,0,-2,-2
1584990215.9903731,8,-6,-8,-41,-7,-5,-8,-20
1584990215.9903731,-10,-10,-6,-10,-6,-2,6,-10
1584990216.0119882,-119,-17,-4,0,-4,-3,-7,-32
1584990216.0119882,41,-1,3,5,-1,0,0,-2
1584990216.0136497,-12,1,-3,-1,-3,1,0,9
1584990216.0136497,-3,-3,1,4,2,3,3,52
1584990216.0262232,-58,-19,-6,-6,-3,-4,-10,-86
1584990216.0262232,30,-5,2,1,0,2,-1,-9
1584990216.027113,14,3,-3,-2,-1,-4,-1,17
1584990216.027113,-25,1,4,4,2,0,3,1
1584990216.049426,-30,-21,-4,-4,-6,-3,-4,10
1584990216.049426,37,-1,-5,3,1,-3,-3,-11
1584990216.0507817,-1,3,0,-4,-1,-3,1,-1
1584990216.0507817,13,6,1,-1,-3,-4,-3,1
1584990216.0724034,-6,2,0,1,4,2,2,-3
1584990216.0724034,5,-1,4,1,-2,-3,2,8
1584990216.0737274,6,5,2,3,0,1,1,4
1584990216.0737274,-44,-3,-5,2,-4,-1,-6,-6
1584990216.0862455,8,4,0,-1,-3,-3,0,6
1584990216.0862455,6,-5,0,-1,2,-1,-1,-21
1584990216.0874717,4,5,-2,2,-2,-1,-1,10
1584990216.0874717,-3,0,-4,-2,-1,1,-1,2
1584990216.1095028,-2,-1,1,0,-2,1,4,5
1584990216.1095028,1,0,2,3,-1,2,3,5
1584990216.1111133,-7,-1,-3,-2,-5,-2,2,-3
1584990216.1111133,20,-2,-2,-2,-3,-4,-2,-6
1584990216.1319313,-73,-12,-7,1,0,0,0,6
1584990216.1319313,68,0,4,-3,-3,0,-7,-15
1584990216.133343,19,23,-4,-4,1,-2,-2,-6
1584990216.133343,38,10,-1,2,1,1,3,11
1584990216.146246,-1,-11,-5,3,-3,1,2,23
1584990216.146246,49,3,0,2,2,2,6,11
1584990216.147146,-66,-7,-6,-3,0,-1,-5,-15
1584990216.147146,9,5,1,6,1,3,3,15
1584990216.169428,-3,-10,1,0,0,-4,-12,-22
1584990216.169428,16,1,-2,1,1,2,0,12
1584990216.1707575,2,1,3,-1,-1,1,3,6
1584990216.1707575,8,1,-1,-1,-2,-3,-4,-14
1584990216.1995378,-13,-5,-2,-1,0,-1,-2,-1
1584990216.1995378,25,3,-2,0,1,0,1,21
1584990216.2008338,-32,-4,0,-1,2,1,0,-5
1584990216.2008338,29,3,0,1,-5,-2,0,1
1584990216.2062209,-44,-15,-2,-1,-1,0,-1,18
1584990216.2062209,16,-10,-7,-1,-3,-2,-4,-41
1584990216.2074637,8,8,1,-2,-1,-1,1,19
1584990216.2074637,-4,-19,-10,2,1,-1,2,21
1584990216.2295353,59,18,7,-2,-4,2,5,15
1584990216.2295353,-74,-4,-5,-4,2,3,-2,-23
1584990216.2310297,-12,2,-5,2,2,-1,1,24
1584990216.2310297,41,-9,-2,-5,-4,-5,-8,-45
1584990216.2520087,5,-1,-3,-5,-3,-1,5,24
1584990216.2520087,17,-3,1,0,-3,-3,-4,-24
1584990216.2536733,-4,7,-1,0,1,1,2,6
1584990216.2536733,32,4,-1,-1,-2,-4,-6,8
1584990216.2662969,-12,-3,1,-1,3,2,2,2
1584990216.2662969,3,0,0,0,2,3,-2,-7
1584990216.2677062,22,8,-2,3,-2,-2,-1,26
1584990216.2677062,-32,-11,-3,-1,-4,-2,-10,-34
1584990216.2894645,23,4,0,1,-3,2,4,11
1584990216.2894645,-11,-3,-1,-1,2,2,-2,-5
1584990216.2909122,11,3,-1,-1,-2,0,1,-6
1584990216.2909122,12,-4,-2,-3,-1,-1,-5,-3
1584990216.3123243,0,-2,-1,0,-2,0,-3,5
1584990216.3123243,-16,-3,-7,0,-3,-4,-4,5
1584990216.313555,-40,-2,0,2,1,1,-2,-10
1584990216.313555,24,-1,-3,0,-2,2,-6,11
1584990216.3262062,11,-1,0,-2,1,1,-1,9
1584990216.3262062,-29,0,2,0,2,0,0,-10
1584990216.3274143,42,8,-5,-1,1,3,3,15
1584990216.3274143,-60,-7,-1,2,0,-1,3,-21
1584990216.3494148,3,3,0,0,2,0,-1,14
1584990216.3494148,11,0,-4,-1,-4,-1,5,9
1584990216.3503437,13,10,8,2,2,0,1,4
1584990216.3503437,-32,8,0,-1,1,-1,-2,5
1584990216.3719652,19,-4,-4,-2,1,-1,-2,-5
1584990216.3719652,14,-5,-1,-1,0,0,2,2
1584990216.373577,-42,-4,0,0,-3,3,0,-1
1584990216.373577,-4,-2,-3,2,-2,1,-3,-21
1584990216.3861935,2,0,3,-1,-1,-2,4,5
1584990216.3861935,46,1,-3,-4,-3,-2,-4,0
1584990216.3870676,-83,-9,-2,0,2,1,-2,-23
1584990216.3870676,12,7,-3,0,-1,3,-3,-7
1584990216.4094045,63,0,1,-5,-1,-3,0,17
1584990216.4094045,-78,-13,-3,-3,0,2,-3,-35
1584990216.4106352,77,1,-11,-4,-4,0,2,10
1584990216.4106352,-97,-12,-1,0,0,-1,-2,-7
1584990216.4318902,48,23,10,-3,3,4,1,17
1584990216.4318902,-40,2,2,2,1,-1,1,-25
1584990216.4331875,37,-10,-13,0,4,-3,4,12
1584990216.4331875,-52,-14,-4,-2,-2,-5,-5,-27
1584990216.4462461,39,-4,-1,-3,0,-1,2,8
1584990216.4462461,-3,-1,1,3,2,-3,3,1
1584990216.4475944,-4,-2,-1,-1,-2,0,-3,2
1584990216.4475944,-7,0,3,0,1,2,-3,-1
1584990216.4694686,0,0,0,1,0,3,-3,-2
1584990216.4694686,-2,1,2,-1,4,0,-1,-2
1584990216.4708986,3,-1,-1,2,1,1,-1,0
1584990216.4708986,-5,-3,-4,0,-2,-1,1,-4
1584990216.4919505,-3,-2,3,-6,-1,-3,-1,1
1584990216.4919505,-3,3,5,0,2,2,2,8
1584990216.4937866,49,11,-4,0,0,1,2,20
1584990216.4937866,-65,-1,1,1,-1,-1,-1,0
1584990216.5062733,13,-5,1,-4,2,4,0,-15
1584990216.5062733,33,5,3,1,0,0,0,23
1584990216.5074747,22,-4,-6,-2,-3,0,1,2
1584990216.5074747,-17,6,7,4,3,1,3,-8
1584990216.537014,-58,-9,-3,-5,-1,-2,-7,-23
1584990216.537014,28,1,4,0,1,-1,3,12
1584990216.5383527,-5,-4,-1,2,-1,0,2,5
1584990216.5383527,34,13,8,4,0,2,8,16
1584990216.5519028,-100,-19,-3,-5,-2,-2,-5,-35
1584990216.5519028,20,2,-3,-1,-1,0,-2,7
1584990216.5528052,13,5,-2,-2,2,0,0,9
1584990216.5528052,7,1,-2,-1,-3,1,1,-2
1584990216.5662107,-13,-1,2,1,3,0,-1,5
1584990216.5662107,15,3,-1,-1,-1,2,2,12
1584990216.5674584,-18,0,-1,1,3,-2,-5,-17
1584990216.5674584,7,-1,-1,-1,1,0,1,-2
1584990216.5894847,-1,5,5,-1,-4,-1,0,-1
1584990216.5894847,2,3,1,1,0,0,0,6
1584990216.5908382,7,0,-1,-2,-4,-4,-1,-11
1584990216.5908382,-14,1,1,4,1,1,-2,-1
1584990216.6282227,35,7,5,0,-1,0,3,12
1584990216.6282227,-58,-9,-3,-2,-1,-2,-1,-19
1584990216.6294765,-26,-1,-7,-4,-4,-1,-19,-20
1584990216.6294765,8,-9,-4,-1,-1,0,3,10
1584990216.6309636,6,5,4,-1,0,-1,2,-9
1584990216.6309636,-19,0,9,2,4,1,5,9
1584990216.633755,-6,-3,-3,0,-4,0,-8,-4
1584990216.633755,24,2,-2,-4,-1,-4,-3,6
1584990216.6574793,5,-10,-4,-5,-4,-2,3,-9
1584990216.6574793,-15,-4,0,-4,0,-1,-4,-10
1584990216.658902,15,3,1,2,3,0,3,8
1584990216.658902,20,22,4,-1,-1,1,0,4
1584990216.6719656,-15,-9,-3,-4,-2,1,-4,10
1584990216.6719656,5,-10,-3,-4,-3,-6,-6,-13
1584990216.6737466,-14,2,-6,0,-5,-2,-1,-2
1584990216.6737466,7,-2,-1,-4,2,-3,1,3
1584990216.686219,2,2,-1,-1,-2,4,11,8
1584990216.686219,6,4,1,1,1,2,-8,-1
1584990216.6870975,-6,5,3,2,1,-1,-2,-7
1584990216.6870975,-15,-4,-2,-2,-1,3,10,2
1584990216.7094183,-13,-2,-4,-2,1,-3,-1,4
1584990216.7094183,10,-12,-2,-1,2,-1,1,-12
1584990216.710783,2,14,4,1,-2,-4,-16,-3
1584990216.710783,23,8,1,2,-2,-5,0,10
1584990216.7322912,-29,-4,3,-1,1,0,-18,-10
1584990216.7322912,-16,-3,-5,1,-4,-8,5,0
1584990216.7335763,33,8,-3,3,0,4,13,5
1584990216.7335763,-5,0,-1,-1,-3,-1,-7,-4
1584990216.7462204,46,2,-1,0,0,-5,6,13
1584990216.7462204,-52,1,8,1,3,4,7,-9
1584990216.7474566,8,0,-9,3,5,-3,13,2
1584990216.7474566,10,-4,0,2,15,4,-35,0
1584990216.769438,3,2,2,2,-5,0,19,8
1584990216.769438,-24,-9,-5,-8,-1,-4,-22,-4
1584990216.770321,18,-4,-5,-2,-16,0,26,1
1584990216.770321,-5,-2,0,-3,-12,-9,-25,7
1584990216.7920065,-5,1,5,5,12,-6,-11,-14
1584990216.7920065,3,4,-4,3,16,8,52,13
1584990216.793739,-32,-6,-4,2,3,11,-43,-8
1584990216.793739,11,-1,-3,-3,-10,-3,43,4
1584990216.8056307,17,0,2,-9,-30,-19,-54,13
1584990216.8056307,-37,-9,-5,0,2,-8,11,-16
1584990216.8137426,16,2,-4,3,8,4,-23,-11
1584990216.8137426,8,0,0,3,8,10,23,5
1584990216.8294344,-12,0,1,2,5,7,3,13
1584990216.8294344,27,0,3,3,2,-1,1,1
1584990216.8310392,-58,-1,-4,0,-2,-3,3,-10
1584990216.8310392,10,-4,-6,-1,-5,1,3,1
1584990216.8519416,8,4,10,4,2,1,-3,5
1584990216.8519416,-2,-6,0,-1,-3,1,-2,6
1584990216.852822,-10,-5,-7,-3,4,3,15,3
1584990216.852822,6,5,6,3,11,6,8,1
1584990216.8744361,-10,1,1,-2,-1,-7,12,-14
1584990216.8744361,1,-19,-3,-9,-8,-14,-32,-5
1584990216.8753345,-10,4,-4,-2,-26,-10,5,-6
1584990216.8753345,-24,0,1,1,-1,3,31,3
1584990216.8894985,-5,-6,-1,1,3,-3,-12,3
1584990216.8894985,33,-3,-3,-5,1,-2,-3,10
1584990216.8909147,-21,-6,-1,-1,0,-2,-9,-40
1584990216.8909147,-13,1,3,4,10,2,-6,6
1584990216.9123104,-6,-3,-1,11,1,0,23,1
1584990216.9123104,-17,0,-1,-11,-2,1,5,1
1584990216.9136336,25,7,0,5,3,0,-8,1
1584990216.9136336,-8,-7,-1,-2,-1,3,4,11
1584990216.9343693,-7,-4,0,-3,-13,-2,20,-4
1584990216.9343693,-5,0,3,1,12,-8,-34,-9
1584990216.9353948,0,11,5,9,2,8,56,-2
1584990216.9353948,-5,-1,-2,-2,-4,-1,8,27
1584990216.9494333,1,0,3,-2,-4,2,8,-20
1584990216.9494333,23,-3,-4,-3,-7,-13,-46,-10
1584990216.9503462,-15,2,-1,6,11,-19,-11,3
1584990216.9503462,9,1,0,8,15,17,2,24
1584990216.9718773,8,4,4,-10,-17,-8,26,14
1584990216.9718773,7,3,-2,0,-1,13,-16,18
1584990216.9727795,-21,14,6,13,-7,1,-43,-23
1584990216.9727795,41,-4,-4,-5,0,1,2,-20
1584990216.9943428,4,-2,2,6,28,21,56,18
1584990216.9943428,-12,1,-6,-6,-19,14,9,12
1584990216.9951317,-16,14,0,-3,-23,-12,1,9
1584990216.9951317,7,-6,-4,-7,-30,-17,-18,-16
1584990217.0098364,-17,-6,-4,-3,9,12,10,-13
1584990217.0098364,-6,-2,-4,8,8,12,8,14
1584990217.01143,-1,-15,-8,-4,29,26,25,-24
1584990217.01143,8,1,-1,-11,-51,-9,-12,-23
1584990217.0319118,-3,-8,-4,-4,-9,-12,0,16
1584990217.0319118,-1,4,14,6,5,-9,-3,-7
1584990217.0327754,7,-25,-9,5,25,28,38,-1
1584990217.0327754,-14,22,11,-5,-1,-7,-23,-8
1584990217.0544412,-31,5,5,-9,-17,4,22,-51
1584990217.0544412,11,-57,-15,0,-11,-7,-5,-7
1584990217.055994,61,70,15,12,15,12,5,48
1584990217.055994,-58,-43,0,10,57,34,-32,-24
1584990217.0687935,29,6,-16,14,63,42,53,3
1584990217.0687935,-55,1,19,-46,-128,-128,-47,-18
1584990217.069839,16,-8,-8,-2,42,24,11,20
1584990217.069839,-12,-24,3,14,53,39,-7,-38
1584990217.091918,26,-40,-16,9,24,11,-17,64
1584990217.091918,-30,77,22,9,2,6,8,34
1584990217.093229,30,-10,0,3,-10,-13,5,8
1584990217.093229,-9,11,2,-3,-12,3,36,-12
1584990217.1143594,-44,-11,3,4,7,15,-26,-20
1584990217.1143594,5,2,-4,-9,6,-1,29,-19
1584990217.1152554,9,-76,-22,-13,-31,-16,12,40
1584990217.1152554,-7,60,6,6,3,-7,-17,-4
1584990217.1287491,-22,-2,1,-12,-32,-48,-114,-29
1584990217.1287491,6,-41,-19,5,-7,26,9,-5
1584990217.1299934,14,31,3,-7,32,-3,-112,-29
1584990217.1299934,-8,-5,-13,-4,-16,-9,29,67
1584990217.1518786,-17,-39,-5,-14,-2,6,13,-62
1584990217.1518786,-16,4,9,7,-7,-32,-58,-13
1584990217.153054,29,46,12,11,23,56,93,14
1584990217.153054,-31,-11,-1,1,-1,12,5,-48
1584990217.1749163,-13,15,7,2,-7,-36,-128,19
1584990217.1749163,-11,61,2,-5,13,28,112,25
1584990217.17537,-17,-38,-19,-9,1,15,-24,-15
1584990217.17537,47,-28,31,22,9,10,103,18
1584990217.189544,-6,28,18,6,33,-22,-128,-12
1584990217.189544,3,-25,-15,-16,-14,-14,91,30
1584990217.1907775,-2,-2,-5,3,-9,-6,-128,-46
1584990217.1907775,-9,-16,-6,-10,-26,-19,97,-3
1584990217.211864,14,5,3,-7,33,42,116,9
1584990217.211864,1,-19,-4,-2,-8,-17,-105,28
1584990217.2143188,-8,25,8,11,12,-12,-47,-23
1584990217.2143188,15,-72,-3,21,20,21,38,28
1584990217.2358403,-25,100,23,-8,-12,12,21,6
1584990217.2358403,12,30,8,1,0,-15,7,-16
1584990217.23763,18,-30,-8,13,1,-17,-11,9
1584990217.23763,-8,-52,-14,-3,4,2,-8,-16
1584990217.2569063,-21,-36,-17,-11,-14,-5,-14,33
1584990217.2569063,91,98,20,-2,5,11,-6,-5
1584990217.2587705,-28,-3,-6,-2,-11,-14,1,34
1584990217.2587705,-15,-28,-16,-3,1,-9,-15,2
1584990217.2718942,-9,-36,-16,-10,-12,-12,-13,-32
1584990217.2718942,24,13,9,0,-3,-7,-7,35
1584990217.2736685,-1,-23,-12,-13,-7,19,40,-67
1584990217.2736685,-9,-6,-1,9,7,-60,-121,-20
1584990217.294806,8,-5,7,2,11,12,23,7
1584990217.294806,3,11,-1,-11,13,11,33,2
1584990217.2964604,-8,-8,-2,-11,-39,-24,-78,-32
1584990217.2964604,8,2,-4,27,49,46,59,24
1584990217.308087,-15,24,0,-19,-9,0,29,-20
1584990217.308087,2,6,-8,3,5,13,-12,-3
1584990217.316899,2,0,3,6,2,-30,5,-13
1584990217.316899,15,-39,-16,-4,-4,0,-8,8
1584990217.3319678,8,-8,13,5,5,20,127,12
1584990217.3319678,-57,60,9,-9,3,5,-128,-67
1584990217.3339968,-1,4,3,-3,-6,-32,15,0
1584990217.3339968,-8,-58,-20,-6,-10,-16,-16,3
1584990217.35441,11,14,7,4,17,23,27,2
1584990217.35441,37,10,3,-5,-10,-26,-12,9
1584990217.3558807,-44,-23,-1,0,-8,-7,-5,23
1584990217.3558807,28,18,27,53,56,29,-17,-4
1584990217.3773277,13,-23,-8,-26,-29,6,34,39
1584990217.3773277,7,7,12,27,32,-9,-25,-24
1584990217.3791375,-33,-28,-8,-41,-59,-50,-81,-22
1584990217.3791375,8,11,5,6,-5,0,-6,25
1584990217.3919737,-4,-9,-1,9,18,6,24,-10
1584990217.3919737,-24,13,12,6,4,4,8,-1
1584990217.3940887,31,11,-1,7,6,0,-2,-8
1584990217.3940887,-9,-3,4,11,22,27,21,45
1584990217.4143944,-7,9,2,-4,1,-6,8,-11
1584990217.4143944,12,32,2,0,-2,-3,0,-9
1584990217.4158783,-8,-18,-9,0,2,-3,-6,-42
1584990217.4158783,10,-13,-5,-5,-7,-5,0,11
1584990217.4285274,6,-6,-3,1,4,7,34,3
1584990217.4285274,4,8,3,11,9,7,-8,-15
1584990217.436907,-5,-10,-9,3,11,9,-8,-14
1584990217.436907,5,-2,9,13,-2,0,-5,-4
1584990217.450951,-8,8,8,-17,-10,-5,-1,-2
1584990217.450951,2,0,-7,4,-2,0,-4,7
1584990217.4594114,-1,-1,-8,2,-11,-4,6,-13
1584990217.4594114,-3,-2,-3,-1,2,-1,3,15
1584990217.4743426,0,-1,6,-2,1,10,1,0
1584990217.4743426,-2,3,2,-1,-4,1,-6,-1
1584990217.4765594,-1,8,2,5,2,2,3,-1
1584990217.4765594,1,-6,0,12,8,0,-3,-1
1584990217.4880073,-2,-7,-1,-8,-6,10,2,3
1584990217.4880073,4,3,-1,0,5,-14,1,5
1584990217.4968917,-1,4,0,-5,-4,-2,2,1
1584990217.4968917,-2,-1,-2,-2,-1,1,1,-11
1584990217.5118394,-2,-5,3,-2,0,3,1,-1
1584990217.5118394,9,4,2,21,3,1,0,5
1584990217.5132957,-4,4,-1,-21,0,2,-5,-4
1584990217.5132957,-5,-3,1,7,-6,-2,1,8
1584990217.5358255,6,0,2,20,6,-3,3,-8
1584990217.5358255,-1,0,-1,-10,-12,-2,2,12
1584990217.537569,3,4,-3,6,0,-1,-4,-19
1584990217.537569,-23,-4,-1,-1,-6,-4,2,4
1584990217.5480187,9,-2,-3,12,3,13,1,-6
1584990217.5480187,0,-2,1,-3,-7,9,-1,0
1584990217.5568783,8,-2,-5,-7,-16,-28,6,7
1584990217.5568783,0,-1,-3,8,1,-10,-1,-5
1584990217.5723143,17,8,4,-2,-1,34,11,46
1584990217.5723143,-29,-16,-2,1,-9,-63,-16,-62
1584990217.5740497,-26,-8,-4,-10,-5,-10,-11,-56
1584990217.5740497,15,6,1,3,-4,4,3,31
1584990217.59439,8,3,8,-3,4,11,8,28
1584990217.59439,32,13,5,10,8,2,4,23
1584990217.596651,4,6,-1,-5,-8,5,0,16
1584990217.596651,15,-8,-5,-3,-3,-12,-1,-7
1584990217.6080449,-16,-4,-4,0,3,-1,-1,7
1584990217.6080449,10,6,0,5,2,5,6,10
1584990217.6168866,4,-4,-1,-2,1,0,-1,-4
1584990217.6168866,36,7,0,2,0,0,0,27
1584990217.631885,-86,-12,-2,0,-8,0,-5,-29
1584990217.631885,43,1,1,-1,-2,2,-1,0
1584990217.6335416,-13,-23,-8,-9,-8,-9,-11,-76
1584990217.6335416,9,17,5,3,-1,0,8,38
1584990217.6544003,11,10,8,0,4,1,1,-7
1584990217.6544003,-13,-11,-4,12,1,-2,-4,8
1584990217.6559563,-16,0,-2,-8,4,2,4,-11
1584990217.6559563,-53,-10,-6,-1,-5,7,-10,-60
1584990217.6680357,23,4,3,0,-4,-5,-1,12
1584990217.6680357,14,4,-4,2,2,0,5,11
1584990217.6768866,18,10,-2,6,1,1,3,15
1584990217.6768866,-27,-5,2,3,0,-2,-1,-11
1584990217.691898,-9,-11,-3,-13,-5,-4,-5,4
1584990217.691898,14,-1,-7,0,-1,-3,-5,-8
1584990217.6939893,19,14,6,8,3,5,3,29
1584990217.6939893,10,-1,5,4,1,6,0,-12
1584990217.7143402,-43,-6,-3,4,1,-1,-1,-13
1584990217.7143402,34,4,2,-3,-2,1,-4,-11
1584990217.716499,7,8,-3,0,-5,1,2,12
1584990217.716499,3,-8,8,0,1,0,-2,2
1584990217.7369692,29,5,3,-1,1,2,4,-2
1584990217.7369692,-16,-9,-5,-3,1,-2,-3,9
1584990217.7387292,5,5,-1,-1,0,3,-1,-15
1584990217.7387292,15,10,3,-1,1,-2,0,14
1584990217.7518952,-17,-3,0,1,1,0,-3,-8
1584990217.7518952,-35,-6,-1,-1,0,-5,-4,-9
1584990217.753845,6,7,-2,2,-2,-3,0,-8
1584990217.753845,29,-7,0,3,4,1,-1,1
1584990217.77438,24,2,4,1,2,0,2,12
1584990217.77438,-5,0,1,-1,0,-1,-3,7
1584990217.7765336,-33,-4,0,-1,-5,-2,-2,-8
1584990217.7765336,-12,-5,-1,-2,-2,0,3,-9
1584990217.788,16,-7,-2,-3,-1,-3,-3,3
1584990217.788,48,6,-3,2,-5,-2,1,25
1584990217.7968163,-48,0,-3,-2,0,-2,2,-3
1584990217.7968163,-35,-4,1,5,-1,0,-1,-26
1584990217.8104386,17,-4,1,-5,1,2,2,2
1584990217.8104386,10,2,0,0,2,-1,1,2
1584990217.8193734,0,-1,-2,-2,-2,1,-2,-5
1584990217.8193734,0,2,1,1,2,1,4,7
1584990217.834367,-16,-6,3,2,0,-1,0,-5
1584990217.834367,10,-4,-4,-2,-5,-5,-11,-5
1584990217.8358395,28,4,0,0,-1,-4,0,-3
1584990217.8358395,17,3,2,0,4,-1,4,13
1584990217.848496,18,1,4,-1,1,2,1,8
1584990217.848496,-5,3,0,2,-1,1,3,0
1584990217.8630314,20,-3,-7,0,-1,-4,-3,-12
1584990217.8630314,30,-8,-5,-4,-2,-2,-2,16
1584990217.87122,7,2,4,4,2,0,4,1
1584990217.87122,1,-3,-1,6,3,3,-3,0
1584990217.8780117,-35,-9,-6,-9,0,0,-6,-30
1584990217.8780117,21,-3,-2,0,-4,0,-4,6
1584990217.8944628,12,0,1,2,0,3,3,7
1584990217.8944628,-18,1,-3,-1,1,0,2,-4
1584990217.89593,20,5,-1,2,2,2,0,6
1584990217.89593,-34,-3,3,4,-2,0,-1,-16
1584990217.9080355,33,0,-2,-3,-3,-1,1,9
1584990217.9080355,-71,-6,-10,-3,1,0,-4,-11
1584990217.9168806,23,-1,-5,0,-3,-1,-3,-23
1584990217.9168806,22,2,-2,0,2,-2,-2,-1
1584990217.931832,-2,-9,0,0,3,-1,3,23
1584990217.931832,-3,8,4,-2,2,1,0,1
1584990217.9334435,41,0,-8,-1,-2,0,-6,-4
1584990217.9334435,-67,-17,-4,-4,1,-3,-10,-17
1584990217.954333,49,1,-3,0,-1,-2,0,19
1584990217.954333,17,7,-2,0,-1,-1,3,6
1584990217.9558067,-1,-1,-2,-3,-2,2,1,5
1584990217.9558067,0,-7,0,2,-3,4,-3,10
1584990217.975941,-17,-6,4,1,0,3,-3,-16
1584990217.975941,2,6,-2,1,0,-1,0,4
1584990217.9843547,-32,-6,-2,-3,-2,0,-5,-15
1584990217.9843547,3,3,4,0,-1,1,3,1
1584990217.991815,23,-1,0,-2,-3,-5,-4,0
1584990217.991815,-40,2,-1,0,0,0,1,1
1584990217.9933214,28,4,-6,0,-1,0,-3,-18
1584990217.9933214,-1,0,3,0,-2,0,-1,4
1584990218.0143423,-32,-3,-3,-1,0,1,-3,3
1584990218.0143423,0,2,-3,-4,-1,-3,1,0
1584990218.0158544,-3,3,0,2,-4,0,5,14
1584990218.0158544,-10,-1,1,1,2,-2,-3,-10
1584990218.036966,28,-6,-3,-4,-2,-1,-4,-3
1584990218.036966,-36,-5,-6,-5,-2,-3,-5,-20
1584990218.0388255,17,5,-1,1,2,1,1,14
1584990218.0388255,19,-2,4,2,1,-1,-1,14
1584990218.051882,-41,-3,5,0,0,-1,-5,0
1584990218.051882,24,8,-6,-1,-1,-1,-4,-8
1584990218.053229,6,-4,-3,-3,-3,1,2,5
1584990218.053229,-31,0,2,-1,4,1,3,0
1584990218.0743914,10,-8,1,-4,2,-3,-7,-3
1584990218.0743914,-20,-4,-6,-1,-5,0,-5,-8
1584990218.0759141,-5,1,0,-1,-2,-7,-4,-10
1584990218.0759141,2,0,2,-2,0,-2,-3,-6
1584990218.0973082,44,-3,0,-4,0,2,4,28
1584990218.0973082,-78,-10,-4,-2,0,-4,-9,-50
1584990218.099178,17,6,4,2,-3,1,1,7
1584990218.099178,22,-7,0,-1,1,0,-2,-9
1584990218.110528,-10,0,-5,-6,1,1,4,8
1584990218.110528,15,6,0,1,2,-1,-3,-6
1584990218.126935,8,2,2,0,-5,-1,0,1
1584990218.126935,-10,1,0,2,0,-2,1,10
1584990218.1343045,17,-6,-1,-3,2,2,-2,1
1584990218.1343045,-28,-1,-3,-2,0,4,-3,8
1584990218.1357822,-37,-6,-1,2,-2,1,7,-16
1584990218.1357822,8,-5,-1,-3,-3,-3,0,-4
1584990218.156947,-2,-3,-2,-4,1,-1,0,15
1584990218.156947,17,2,-3,-4,0,0,-5,-8
1584990218.1586363,-22,-5,-4,-3,-2,0,-1,-3
1584990218.1586363,21,-1,-2,-3,-2,-1,-1,12
1584990218.1719215,-14,1,2,3,0,-1,-2,-9
1584990218.1719215,-8,1,-3,-1,0,0,0,6
1584990218.174177,4,0,1,1,3,-3,1,-26
1584990218.174177,-15,-5,-2,1,0,-2,1,22
1584990218.1943648,13,-6,-1,-2,-4,1,0,-5
1584990218.1943648,6,3,-1,-1,-2,-2,-5,-5
1584990218.1964796,8,-2,0,3,-3,-4,-1,-4
1584990218.1964796,3,5,6,1,5,0,6,14
1584990218.2168558,15,-2,-2,-3,1,1,-2,1
1584990218.2168558,-30,-4,-1,0,-3,-2,-2,-12
1584990218.2186027,-1,1,0,-3,0,-3,0,-3
1584990218.2186027,6,-4,2,-1,-1,0,4,10
1584990218.231178,3,4,3,0,-5,-1,2,8
1584990218.231178,39,6,-3,2,-1,-1,-4,10
1584990218.2379751,-24,-8,-1,-1,0,-2,1,-10
1584990218.2379751,-5,-7,1,0,-1,-2,-4,-12
1584990218.2543507,-15,-4,0,0,0,1,-1,-1
1584990218.2543507,20,7,5,1,-4,-1,1,4
1584990218.2558076,13,4,-3,-1,0,1,-3,3
1584990218.2558076,7,2,4,1,-1,2,3,-8
1584990218.276533,7,-6,-5,-7,-1,0,2,-5
1584990218.276533,0,-2,2,3,-1,-1,-1,1
1584990218.2912123,-9,1,2,2,-2,1,2,3
1584990218.2912123,-2,-1,-2,0,-1,-1,-3,-13
1584990218.292702,0,1,0,-2,1,1,0,8
1584990218.292702,-2,-7,-6,1,2,-2,3,6
1584990218.2993433,2,3,2,1,-3,0,1,-10
1584990218.2993433,-9,-7,-3,-1,3,-1,-2,9
1584990218.3143232,-1,1,0,2,0,2,2,-5
1584990218.3143232,5,-6,-3,1,-3,1,2,2
1584990218.3165545,9,4,3,2,-1,-1,1,2
1584990218.3165545,-5,-7,-1,-1,-1,4,4,0
1584990218.3369353,-38,-2,-1,-3,-4,-1,-5,-9
1584990218.3369353,20,5,1,0,-3,2,-3,-1
1584990218.3388002,14,3,-4,-2,1,0,-1,6
1584990218.3388002,-14,-9,2,-2,0,-4,-2,-5
1584990218.3504927,-11,-7,-1,0,0,-1,1,-9
1584990218.3504927,-3,-2,-3,-3,-2,-1,-1,8
1584990218.359375,17,2,0,-1,1,0,-3,9
1584990218.359375,13,-1,0,-1,0,-2,-4,-4
1584990218.3743289,-40,-2,-1,-4,-1,0,1,-1
1584990218.3743289,12,7,2,1,0,0,1,2
1584990218.3766088,15,4,-1,0,-1,-2,1,4
1584990218.3766088,-21,-10,-3,0,-1,6,8,-8
1584990218.4044304,9,-1,-4,-1,1,4,8,4
1584990218.4044304,-19,-3,2,-2,-2,-4,-35,-5
1584990218.4062133,-6,-2,-2,-3,-7,-13,-5,-3
1584990218.4062133,-8,-6,-1,-1,-3,3,1,-18
1584990218.4104779,6,3,-2,2,2,5,7,11
1584990218.4104779,26,5,-1,4,3,3,2,10
1584990218.4193044,-63,6,2,2,1,0,10,-22
1584990218.4193044,6,-8,0,-1,2,-11,-56,-7
1584990218.4343407,15,-10,-1,-1,-1,-5,11,1
1584990218.4343407,-34,6,2,1,3,13,30,0
1584990218.4358375,12,4,-1,0,1,0,-10,8
1584990218.4358375,-1,-3,-3,-3,-3,-12,6,-1
1584990218.4569538,0,0,-6,-3,-1,1,-15,-1
1584990218.4569538,-2,0,-1,1,-1,1,13,-2
1584990218.4588072,5,-5,1,-2,0,6,10,0
1584990218.4588072,0,8,5,-2,-3,0,7,5
1584990218.470547,-22,-10,-2,-5,-7,-10,-11,2
1584990218.470547,16,3,-2,-3,0,-2,-19,-17
1584990218.4793398,-1,5,-1,3,3,1,12,3
1584990218.4793398,0,-9,-4,1,4,4,15,9
1584990218.4943545,0,-2,-4,-5,-9,-3,16,-6
1584990218.4943545,0,1,3,-2,-6,-7,-25,13
1584990218.4966009,-21,-6,-5,1,0,-3,10,-10
1584990218.4966009,9,-4,0,-2,-1,-4,-16,2
1584990218.5167787,-15,0,-1,-2,6,9,32,-6
1584990218.5167787,3,1,1,0,-1,1,-56,1
1584990218.5181937,12,2,-2,0,1,0,21,3
1584990218.5181937,-16,-6,5,2,-1,-8,-17,-2
1584990218.530436,6,-4,1,-2,0,-3,7,-4
1584990218.530436,18,3,-6,1,-3,-5,-30,-7
1584990218.5393775,-3,3,3,2,-3,9,65,9
1584990218.5393775,-5,1,-1,0,-6,-4,-78,-5
1584990218.5543501,3,-7,1,-5,-2,-3,31,-5
1584990218.5543501,9,11,0,1,-4,-5,-22,6
1584990218.5558624,-1,-4,-4,3,4,12,67,2
1584990218.5558624,-6,-3,0,4,3,7,-35,8
1584990218.5774865,-4,-1,1,-7,-9,-7,21,-7
1584990218.5774865,17,1,1,5,-1,-14,-4,0
1584990218.5791347,-17,-2,3,3,-2,5,2,2
1584990218.5791347,-23,-7,0,4,11,-3,-14,-5
1584990218.590547,10,2,2,-2,-1,7,9,-9
1584990218.590547,17,5,-3,-5,-11,4,0,8
1584990218.5993347,14,-1,-1,-2,-11,-4,1,-1
1584990218.5993347,-33,-16,-3,-8,8,-5,-56,-27
1584990218.6143441,9,2,-2,10,4,-7,21,0
1584990218.6143441,10,5,2,-4,6,2,9,17
1584990218.616521,-3,4,0,2,2,8,8,-1
1584990218.616521,12,3,6,1,0,-5,-39,-8
1584990218.636932,-8,-4,-1,-4,-7,-13,2,2
1584990218.636932,4,-10,-7,-4,18,-16,-23,-5
1584990218.6387508,3,5,1,4,14,-1,-37,7
1584990218.6387508,-4,5,-4,1,25,24,60,5
1584990218.6504998,-3,-1,2,1,-30,-18,46,-3
1584990218.6504998,8,24,7,-4,12,0,-31,25
1584990218.6593583,-3,2,0,6,42,12,-83,-18
1584990218.6593583,11,-13,3,1,-63,10,46,-5
1584990218.6749907,-8,-10,-20,-31,106,-17,-114,-5
1584990218.6749907,14,3,10,12,-64,-5,-24,24
1584990218.6772223,7,9,5,-4,127,99,72,-16
1584990218.6772223,10,11,9,-16,-128,-128,-44,-2
1584990218.6974988,-5,15,10,9,58,21,-11,-11
1584990218.6974988,-10,11,3,23,5,71,15,6
1584990218.6993372,10,-11,0,1,61,-3,10,-9
1584990218.6993372,11,-16,-4,7,2,30,-19,8
1584990218.710509,-36,0,0,-1,69,-7,-1,-16
1584990218.710509,13,-8,-7,-3,-20,9,11,18
1584990218.719367,-14,33,9,-2,-50,-42,-6,-16
1584990218.719367,3,1,-10,-10,-11,1,23,-17
1584990218.7343354,20,-1,-2,-1,7,9,13,5
1584990218.7343354,8,15,1,-13,-35,-14,-8,31
1584990218.7357252,-5,-31,-12,9,18,6,4,8
1584990218.7357252,-32,24,21,-2,-5,-5,-24,-24
1584990218.756941,15,4,-5,-17,-38,-14,-10,-18
1584990218.756941,6,-33,-11,2,-4,-17,-7,5
1584990218.758826,0,8,8,11,43,22,-23,-21
1584990218.758826,33,11,7,7,-10,10,-28,-5
1584990218.7705994,-17,-24,9,5,5,-4,16,-4
1584990218.7705994,21,20,-1,10,64,49,24,37
1584990218.7793539,-19,-21,-4,-29,-98,-78,-47,-45
1584990218.7793539,13,17,5,17,35,28,-40,64
1584990218.7936943,0,-19,-12,-3,0,-16,8,11
1584990218.7936943,39,-25,-11,1,63,27,-122,-20
1584990218.8181522,-38,34,37,-9,-128,-78,-18,-25
1584990218.8181522,-21,29,-10,-19,-15,-24,20,10
1584990218.8190606,24,1,3,2,-17,-13,18,52
1584990218.8190606,-40,-24,-19,-5,12,14,-10,-109
1584990218.8203473,50,22,24,30,127,124,26,21
1584990218.8203473,21,-82,-20,8,18,-5,57,33
1584990218.8305187,-57,103,11,-12,-17,-91,39,-42
1584990218.8305187,-49,-1,-3,16,127,127,22,5
1584990218.846882,-3,-73,-24,-42,-128,-128,2,-55
1584990218.846882,25,-9,13,-14,26,-91,-5,-36
1584990218.8530254,4,-24,-1,19,69,59,-14,16
1584990218.8530254,21,2,-2,12,97,73,24,1
1584990218.8619146,-3,10,12,-10,-50,-57,-51,-15
1584990218.8619146,6,-3,5,2,33,17,66,11
1584990218.8781633,-5,-10,-14,-10,-8,7,-15,-30
1584990218.8781633,18,7,-2,8,33,46,69,-8
1584990218.8799016,-25,-30,-13,4,0,-7,-64,-11
1584990218.8799016,3,-5,7,11,28,32,94,-23
1584990218.899379,69,15,4,-4,-36,8,-9,10
1584990218.899379,-55,88,23,16,19,-6,-55,14
1584990218.901103,19,12,0,-8,-90,-34,36,-25
1584990218.901103,3,-45,-7,6,41,69,67,17
1584990218.914337,-11,-8,6,-8,-27,-8,-25,-8
1584990218.914337,-8,-13,-14,2,-3,-3,-35,-4
1584990218.9164908,4,17,-5,12,80,84,87,58
1584990218.9164908,-26,5,-7,-34,-122,-76,42,-111
1584990218.9369936,-31,-30,0,-6,-6,-56,-128,-70
1584990218.9369936,27,2,-6,-3,37,31,-26,34
1584990218.9387708,16,16,9,30,105,28,-9,18
1584990218.9387708,-4,1,4,1,0,33,89,35
1584990218.9593961,-21,-26,-20,-33,-97,-21,-128,-28
1584990218.9593961,-15,-47,-21,-11,57,5,33,8
1584990218.9610465,8,52,26,25,30,-6,65,6
1584990218.9610465,-13,-50,-15,3,59,83,34,-12
1584990218.9818552,17,58,-3,-7,-80,-78,38,-25
1584990218.9818552,-17,-13,15,25,78,84,57,38
1584990218.983548,-88,13,8,-8,-41,-56,-13,-27
1584990218.983548,32,-33,0,5,52,20,-14,13
1584990218.997471,26,3,1,-2,14,51,21,-10
1584990218.997471,-33,-40,-5,6,11,-8,-26,8
1584990218.9991899,20,-23,-8,-8,-18,10,79,-1
1584990218.9991899,-90,15,0,-26,-20,-35,-7,-92
1584990219.019318,17,-24,0,3,-16,-26,-37,35
1584990219.019318,26,-5,-3,0,10,-7,-24,19
1584990219.020745,11,12,0,39,59,66,72,25
1584990219.020745,-3,-18,-18,-39,-38,5,21,19
1584990219.0343046,4,-1,2,-4,-52,-52,-128,-4
1584990219.0343046,-9,8,-4,14,-22,-23,11,-23
1584990219.0357575,2,1,0,-12,-5,9,-4,10
1584990219.0357575,-15,-3,6,20,81,51,74,-16
1584990219.056876,-5,-11,-4,-1,-52,-25,27,-1
1584990219.056876,-18,-1,-9,-2,7,-21,-83,4
1584990219.0587888,-7,41,17,9,34,-24,6,-11
1584990219.0587888,-3,8,11,-3,-6,-4,9,-15
1584990219.079311,12,-59,-12,0,2,16,9,9
1584990219.079311,-31,56,19,5,4,13,-15,2
1584990219.081056,-21,-4,-10,-5,17,-1,4,-5
1584990219.081056,13,-46,-6,4,29,17,4,-11
1584990219.0929694,2,16,5,2,-10,0,-7,2
1584990219.0929694,17,-12,-3,-1,-22,-27,1,12
1584990219.1018484,-16,3,2,-1,-7,-1,-1,-18
1584990219.1018484,12,-5,3,16,18,7,-4,9
1584990219.1243784,11,2,6,9,10,16,8,12
1584990219.1243784,-2,5,-10,13,-15,-9,-11,-2
1584990219.1261456,1,-7,-7,-25,30,30,11,3
1584990219.1261456,-6,-9,1,3,-12,-19,-9,-3
1584990219.1393704,1,13,6,10,-6,19,18,12
1584990219.1393704,-2,-2,-5,8,25,-10,-35,-8
1584990219.1410742,1,6,4,5,6,-1,-19,0
1584990219.1410742,0,-4,-1,-11,-31,-4,33,0
1584990219.1536694,2,7,-1,12,62,11,1,5
1584990219.1536694,2,6,-1,2,-7,-2,-1,2
1584990219.1617513,1,1,-1,-7,-4,-1,1,-1
1584990219.1617513,1,-7,0,-2,-6,-1,0,0
1584990219.1768014,-3,0,-1,2,-2,2,3,2
1584990219.1768014,5,2,1,2,-1,-3,0,6
1584990219.1791131,-2,0,-6,2,4,-2,2,7
1584990219.1791131,-4,-3,0,-6,-9,0,-1,-6
1584990219.1992831,6,1,-1,-1,3,-1,-1,19
1584990219.1992831,-3,1,-1,1,-2,-3,-7,-14
1584990219.2017286,6,2,1,1,-3,-4,0,-1
1584990219.2017286,22,3,5,2,1,-11,1,22
1584990219.212928,-45,-6,-1,-7,1,40,0,-19
1584990219.212928,5,-6,-2,-3,-18,-24,-8,-15
1584990219.2224326,8,-5,-3,0,1,-4,2,16
1584990219.2224326,1,3,3,6,5,4,-1,-11
1584990219.237312,7,0,1,-2,-5,-1,3,18
1584990219.237312,6,4,3,9,4,0,0,12
1584990219.2390382,-65,-13,-3,10,-2,-9,-11,-89
1584990219.2390382,-5,-4,0,-3,-4,-1,0,16
1584990219.2593312,-6,2,3,-3,1,-9,1,30
1584990219.2593312,17,5,-4,1,-1,-3,0,18
1584990219.2610602,14,7,-3,1,3,19,13,6
1584990219.2610602,-12,-4,5,3,0,-12,-5,-3
1584990219.2729962,-32,-10,-7,0,-7,-21,-8,7
1584990219.2729962,30,6,0,3,3,10,12,13
1584990219.281842,-49,-6,0,-3,1,24,-2,-108
1584990219.281842,-4,-7,-3,-2,-5,-6,-5,35
1584990219.2974672,11,1,-1,-1,-1,-7,9,9
1584990219.2974672,12,-4,-2,3,2,-6,-4,-10
1584990219.2991512,19,-6,1,0,-4,-1,-5,18
1584990219.2991512,-9,3,4,-3,-1,3,22,4
1584990219.3193018,36,1,-2,-3,7,17,-7,14
1584990219.3193018,-25,-18,-8,-7,-3,-21,-18,-63
1584990219.320695,-16,1,9,0,-3,-13,8,-13
1584990219.320695,-5,2,-1,6,-1,28,0,7
1584990219.3329585,57,-2,-7,-12,-1,-12,3,54
1584990219.3329585,-101,-16,-6,-5,-8,-20,-9,-40
1584990219.3418198,22,16,3,-2,2,26,9,25
1584990219.3418198,31,-8,-2,-4,-3,1,-5,-11
1584990219.3569434,-29,1,1,3,5,-1,2,7
1584990219.3569434,-30,-20,-3,0,-2,4,-15,-95
1584990219.3586583,-14,-13,-11,-7,-7,-1,-5,29
1584990219.3586583,-22,6,7,1,4,4,11,-31
1584990219.3793116,-94,-7,-5,0,-6,-5,4,-8
1584990219.3793116,115,-3,-8,-2,-5,-4,-12,-13
1584990219.38104,10,18,7,3,2,0,5,35
1584990219.38104,-3,0,7,0,-2,-4,-1,-5
1584990219.3929324,-2,3,-3,-2,-4,4,4,6
1584990219.3929324,-18,2,-4,2,0,0,-3,15
1584990219.4018085,23,-3,-4,-1,-3,-1,-8,-33
1584990219.4018085,41,3,0,-1,2,0,6,34
1584990219.4168112,11,8,4,4,4,5,6,21
1584990219.4168112,-43,-6,-5,-2,-1,-4,-10,-18
1584990219.41846,-5,-2,-1,-1,-5,1,7,46
1584990219.41846,16,-1,4,0,-1,2,4,-13
1584990219.4393997,-103,-15,-4,-4,-5,-4,-12,-42
1584990219.4393997,14,10,3,1,-2,-1,6,40
1584990219.441142,39,5,3,3,4,0,5,33
1584990219.441142,-77,-27,-6,-7,-3,5,-13,-47
1584990219.452974,22,1,1,6,5,1,6,10
1584990219.452974,-59,-17,-11,-5,-3,-4,-4,24
1584990219.461832,29,8,6,5,1,-1,-9,-67
1584990219.461832,-39,-9,1,1,-3,8,2,14
1584990219.4781058,4,3,-5,-6,-4,-14,-9,1
1584990219.4781058,17,14,0,5,1,7,10,22
1584990219.4800353,59,-6,0,-3,-4,5,-2,16
1584990219.4800353,-56,-13,-7,-9,-5,-8,-11,-51
1584990219.4992912,36,12,0,0,1,0,7,31
1584990219.4992912,-9,5,-1,0,4,2,2,8
1584990219.5010116,-2,0,-1,-4,1,0,5,8
1584990219.5010116,2,-3,0,-1,2,5,4,-10
1584990219.513452,-4,2,1,-4,-3,-1,-3,1
1584990219.513452,17,9,1,4,-3,2,0,4
1584990219.5359263,-52,-11,-2,-2,0,-3,1,-22
1584990219.5359263,-48,-18,-7,-5,-2,-2,-4,-13
1584990219.5442545,35,9,0,2,1,-1,0,2
1584990219.5442545,-6,2,0,-1,-3,3,-2,-7
1584990219.5460343,13,1,4,2,0,6,6,24
1584990219.5460343,-38,-7,-2,0,-1,-2,-7,-51
1584990219.559384,19,-5,-7,-6,-2,-2,-2,-13
1584990219.559384,1,6,2,-3,2,1,0,8
1584990219.5610726,30,-4,-2,-2,2,1,-2,7
1584990219.5610726,-41,3,-1,3,3,-1,3,0
1584990219.5729642,-4,-10,-3,-1,2,-1,0,2
1584990219.5729642,29,8,1,1,-1,-1,2,12
1584990219.5817673,-13,0,2,1,-1,1,3,8
1584990219.5817673,-6,-12,-1,2,-3,1,-4,-17
1584990219.5968406,-13,-1,-1,0,0,-1,1,6
1584990219.5968406,-44,-5,-1,1,1,2,-1,-1
1584990219.5986354,-11,0,0,-1,-1,0,-3,7
1584990219.5986354,10,0,1,0,1,5,3,11
1584990219.6193378,13,4,9,4,2,14,7,33
1584990219.6193378,-20,-11,-7,-5,-3,-23,-10,-49
1584990219.6207259,0,-1,-7,-3,-8,-5,1,6
1584990219.6207259,-7,-9,0,-4,0,1,-7,-10
1584990219.632965,-1,7,10,3,3,0,0,13
1584990219.632965,0,6,-4,2,-1,-2,-1,-5
1584990219.6418607,-6,-4,-6,-5,-3,-4,-5,-8
1584990219.6418607,51,0,-6,-1,0,2,6,15
1584990219.6569252,-102,-14,1,0,0,-3,-3,-22
1584990219.6569252,50,25,6,1,-1,1,2,7
1584990219.658773,-36,-8,-4,1,-1,-3,0,-1
1584990219.658773,41,-2,2,1,-2,-2,-1,17
1584990219.6793551,1,8,4,1,1,7,3,-1
1584990219.6793551,43,-3,-11,-4,-2,-3,1,7
1584990219.680988,-14,-9,4,-2,-4,-1,0,5
1584990219.680988,6,-4,3,0,0,-6,-6,-10
1584990219.6929939,4,8,2,-1,3,1,6,11
1584990219.6929939,-13,7,3,0,-2,-7,3,6
1584990219.701835,-9,0,1,0,1,1,0,5
1584990219.701835,33,0,-6,5,2,-4,0,13
1584990219.7168095,1,-1,-6,-3,-6,3,-4,-20
1584990219.7168095,-12,-4,-6,-2,-1,-3,-5,-14
1584990219.7181873,5,-6,-5,-3,-3,6,5,3
1584990219.7181873,6,4,10,0,4,-8,-1,7
1584990219.7393522,2,0,0,3,0,2,2,3
1584990219.7393522,-6,10,6,0,-1,0,4,-1
1584990219.7411146,3,-5,-7,0,-1,0,-6,-10
1584990219.7411146,-2,-10,-3,-5,1,-1,-3,0
1584990219.7529032,31,5,-5,-4,-2,-2,2,19
1584990219.7529032,-58,-3,-7,1,-1,-4,-5,-28
1584990219.7620134,42,2,9,6,4,5,11,27
1584990219.7620134,-19,5,12,2,3,3,5,-16
1584990219.7767892,32,-7,-16,2,1,-3,-2,10
1584990219.7767892,11,2,-1,-1,-3,-3,0,-9
1584990219.7786655,-49,11,2,0,-1,-1,3,17
1584990219.7786655,66,-12,-4,-2,1,-5,-1,-1
1584990219.799291,-50,7,0,1,-3,5,-1,-16
1584990219.799291,24,-5,-4,-3,-2,1,-4,20
1584990219.801067,-46,3,5,0,-2,-3,-1,-12
1584990219.801067,30,2,-1,-3,-1,-2,4,9
1584990219.8217897,-5,3,-3,1,-4,3,3,-12
1584990219.8217897,-7,-6,-2,1,-3,2,-3,3
1584990219.8237107,19,6,-3,0,2,-3,-14,9
1584990219.8237107,5,-10,2,1,2,0,6,4
1584990219.8368418,5,12,15,6,1,-1,-3,-2
1584990219.8368418,14,2,-8,-4,-1,0,0,4
1584990219.8386276,-14,-5,-6,-3,-6,-2,-3,-7
1584990219.8386276,0,-8,-6,-2,1,3,-1,0
1584990219.8593667,6,5,-5,1,-3,2,-2,6
1584990219.8593667,7,7,11,6,2,-4,-2,-17
1584990219.861128,12,-3,0,-2,-5,-2,6,18
1584990219.861128,-24,-7,-8,-3,-2,1,3,-1
1584990219.8818429,12,-3,-1,0,4,-2,0,7
1584990219.8818429,-5,4,4,2,2,-3,0,-8
1584990219.8839984,1,-1,-4,-1,0,-4,1,8
1584990219.8839984,-4,-8,-5,-3,1,-2,2,2
1584990219.8967917,-9,2,0,-2,1,2,-3,-20
1584990219.8967917,-4,-1,-6,-3,-1,2,0,12
1584990219.8988407,36,6,0,0,0,8,0,10
1584990219.8988407,-50,-12,-1,-3,2,2,1,-15
1584990219.9193184,7,5,-1,2,1,-3,8,7
1584990219.9193184,7,0,-3,0,0,3,-4,3
1584990219.9206877,-2,-1,2,1,-2,-1,0,20
1584990219.9206877,5,-1,-1,0,0,-2,0,-1
1584990219.941814,10,1,-8,1,0,1,9,-4
1584990219.941814,-36,0,5,-3,-5,3,-16,-8
1584990219.9439244,26,6,12,3,-3,1,5,6
1584990219.9439244,-7,-6,-2,0,5,3,-7,3
1584990219.9573205,-28,-3,-9,-4,1,8,56,22
1584990219.9573205,-6,-6,-10,0,0,-9,-55,-42
1584990219.9590702,17,-2,8,1,-9,-18,-17,6
1584990219.9590702,-3,-3,6,3,-11,-4,-12,-3
1584990219.9792733,6,9,-5,5,12,24,76,15
1584990219.9792733,20,-3,-12,-2,-3,3,-11,23
1584990219.9810355,33,-9,2,5,12,-4,-31,-19
1584990219.9810355,-106,-12,2,-8,-4,-7,-15,-60
1584990220.0017781,21,0,-3,2,0,4,19,1
1584990220.0017781,23,3,-1,11,1,5,14,22
1584990220.0037484,12,-5,-3,-5,0,-1,5,8
1584990220.0037484,-1,6,9,7,-2,-4,-14,1
1584990220.0167646,9,0,-4,-5,-4,8,-1,15
1584990220.0167646,-33,-4,-3,0,-2,-20,-11,-44
1584990220.0182273,-9,-6,-2,4,6,7,20,5
1584990220.0182273,6,4,4,-11,-2,7,-10,20
1584990220.03927,16,1,3,1,-7,-7,-7,-5
1584990220.03927,-23,-3,-4,-4,0,-5,-21,1
1584990220.0408947,-30,0,-1,-3,3,6,21,-13
1584990220.0408947,7,-1,-1,-3,4,3,6,7
1584990220.0617745,28,0,-4,4,1,1,4,21
1584990220.0617745,28,13,7,2,-4,-6,-21,14
1584990220.0640407,-69,-9,-8,0,-5,-4,6,-3
1584990220.0640407,32,7,10,-2,-1,1,16,9
1584990220.0761697,5,1,-5,0,2,2,3,8
1584990220.0761697,4,2,-9,0,1,2,4,-2
1584990220.0828943,9,-6,2,-2,0,2,4,18
1584990220.0828943,-12,-11,-4,-3,-3,-7,-12,-25
1584990220.0992866,8,6,-1,3,1,3,-1,23
1584990220.0992866,-52,-8,2,-3,1,-6,-3,-28
1584990220.1009395,-5,2,-3,1,2,4,14,5
1584990220.1009395,8,1,-1,-1,-1,8,34,6
1584990220.1217976,16,-1,1,-3,3,-11,-68,8
1584990220.1217976,-8,-12,-6,-4,-10,-15,8,-6
1584990220.1236708,-5,-3,4,4,4,5,2,-14
1584990220.1236708,1,2,4,3,3,8,13,-1
1584990220.1355078,-1,6,-8,-8,3,0,10,7
1584990220.1355078,4,8,-2,-5,1,5,16,5
1584990220.1443064,-3,-1,2,10,10,5,-15,10
1584990220.1443064,-1,-15,-3,-5,-3,-1,-15,1
1584990220.1593332,-16,12,2,-14,-10,-37,-15,-25
1584990220.1593332,1,1,-2,5,4,-1,-8,16
1584990220.1610193,1,-1,3,-2,-1,20,35,-2
1584990220.1610193,-2,0,-5,0,-2,-15,-33,6
1584990220.1817932,10,0,2,5,-4,-4,15,6
1584990220.1817932,-13,-5,4,0,-5,-3,-10,-16
1584990220.183586,-25,-7,-2,-1,-1,4,21,-14
1584990220.183586,7,3,-1,2,4,8,-2,2
1584990220.1955245,18,3,2,-1,-3,0,23,-3
1584990220.1955245,-3,0,-3,-3,-6,-13,-44,1
1584990220.204275,18,-1,-2,2,-1,0,15,-3
1584990220.204275,-21,-5,-2,-1,1,-1,2,1
1584990220.219275,17,4,-5,0,-2,7,23,14
1584990220.219275,0,9,1,2,7,7,-9,-2
1584990220.220678,-16,-12,0,-7,-6,2,13,12
1584990220.220678,7,0,-1,-4,0,-7,-37,-3
1584990220.2499588,-4,1,-4,-1,0,-3,1,-12
1584990220.2499588,6,5,3,4,6,5,17,7
1584990220.2513385,2,-4,0,1,0,6,33,3
1584990220.2513385,24,0,3,0,-1,-1,-29,-3
1584990220.2566514,-30,-1,1,13,1,3,77,-3
1584990220.2566514,5,-2,-3,-16,-5,-6,-76,-21
1584990220.2678733,4,-2,-1,-1,-11,1,26,10
1584990220.2678733,-12,3,-1,-5,2,1,17,3
1584990220.2792332,25,-2,-2,2,-2,8,-1,4
1584990220.2792332,-2,2,5,5,-3,-3,-13,-2
1584990220.2811193,-13,-9,0,-4,-3,-4,-13,-7
1584990220.2811193,13,6,-1,2,6,5,11,16
1584990220.3017743,9,0,-1,-1,7,5,12,-9
1584990220.3017743,3,1,3,-4,-4,-11,1,5
1584990220.3036618,2,-2,-4,-4,-8,-3,-4,-5
1584990220.3036618,5,-1,5,-5,0,8,6,-6
1584990220.3155344,0,1,3,0,6,-18,-5,3
1584990220.3155344,3,4,-1,0,-7,2,0,10
1584990220.3242965,25,1,1,0,1,0,13,15
1584990220.3242965,-72,-14,0,22,16,8,5,-34
1584990220.3393233,21,2,-3,-20,-17,5,-7,11
1584990220.3393233,-1,4,2,-19,-36,-22,11,-17
1584990220.3410363,-14,-3,8,3,13,2,-35,0
1584990220.3410363,1,-1,-2,8,4,3,-19,-5
1584990220.3625314,-4,1,-7,7,14,33,85,8
1584990220.3625314,-14,-3,0,-4,-1,-24,-70,14
1584990220.3644104,1,-17,-5,-12,-20,-13,-53,-52
1584990220.3644104,14,-9,3,-2,-9,-17,-2,-14
1584990220.376019,-9,5,6,8,12,3,-13,8
1584990220.376019,-50,-4,-7,-2,-9,-8,6,-30
1584990220.3842638,30,-3,1,3,7,2,-12,15
1584990220.3842638,0,-9,-19,16,67,45,117,37
1584990220.3993275,-22,48,31,-3,-22,7,-39,4
1584990220.3993275,-35,-11,0,-16,-88,-56,18,-25
1584990220.4010882,67,8,-8,11,19,10,31,13
1584990220.4010882,-72,-40,-12,-15,-23,-17,-50,-20
1584990220.4218614,23,-8,-18,-1,10,-1,16,11
1584990220.4218614,-27,51,1,0,19,-2,30,-27
1584990220.4238455,-5,-6,-2,0,-7,-31,-57,-10
1584990220.4238455,13,-26,-13,-3,9,51,89,-6
1584990220.4358554,-26,-21,-13,-26,-54,-24,-24,-45
1584990220.4358554,23,-7,-19,0,-8,-58,-91,23
1584990220.4442651,-39,-21,7,13,25,31,-6,-20
1584990220.4442651,14,-38,5,-1,2,4,35,-18
1584990220.4595144,-15,14,3,-19,-41,-42,-34,-33
1584990220.4595144,46,-128,-29,3,19,6,9,20
1584990220.461315,20,127,40,12,56,33,-16,45
1584990220.461315,3,-19,6,-16,-51,-19,-24,-103
1584990220.4818945,-1,-28,-3,11,16,3,25,11
1584990220.4818945,-46,-12,-5,6,32,7,34,19
1584990220.4840705,14,11,-1,-6,-38,3,34,-4
1584990220.4840705,13,4,-7,10,9,34,44,11
1584990220.4956014,40,-20,7,13,49,41,-22,121
1584990220.4956014,-55,41,20,-24,-123,-103,-47,-121
1584990220.5118265,28,27,8,25,1,26,-16,37
1584990220.5118265,-2,-14,-25,-21,63,59,56,37
1584990220.5192888,-22,-38,-3,-23,-128,-117,106,-74
1584990220.5192888,22,-6,2,8,38,48,-128,-42
1584990220.520678,15,27,12,6,30,-2,-19,9
1584990220.520678,41,-29,4,12,8,11,71,-4
1584990220.5418286,-34,44,3,-7,-7,11,-21,5
1584990220.5418286,0,17,-3,19,24,38,58,18
1584990220.5440063,27,6,-3,-8,4,-2,-66,-5
1584990220.5440063,-6,49,20,7,-21,-8,11,20
1584990220.5643375,28,18,2,22,54,16,-9,29
1584990220.5643375,-17,-86,-29,-39,-73,0,83,-18
1584990220.5660443,12,84,26,8,4,14,-26,9
1584990220.5660443,26,-17,-1,5,-10,-47,-42,46
1584990220.5792189,4,-8,1,2,-33,-84,-45,-21
1584990220.5792189,1,-44,-14,3,28,36,15,-10
1584990220.5807705,-5,23,3,1,11,9,15,32
1584990220.5807705,12,-13,-1,-14,-12,-31,31,-7
1584990220.6017766,-13,34,4,4,-28,5,34,8
1584990220.6017766,15,0,-4,-1,-2,5,54,12
1584990220.6035566,4,-22,-12,-13,-8,0,-19,43
1584990220.6035566,30,-42,1,10,28,27,37,-26
1584990220.6247203,-99,127,27,14,4,10,-26,-17
1584990220.6247203,35,-6,-15,-3,5,9,-17,-14
1584990220.6304646,19,-48,-7,-11,7,10,25,30
1584990220.6304646,-8,14,-2,6,21,13,-12,10
1584990220.6392872,14,-17,5,-3,3,-4,-23,-29
1584990220.6392872,25,10,-7,12,8,26,54,19
1584990220.6410115,11,-4,4,13,37,-12,-117,1
1584990220.6410115,6,-42,-16,-69,-34,-73,32,-5
1584990220.6617901,-20,4,6,0,-29,-19,-57,11
1584990220.6617901,12,12,4,20,2,5,52,1
1584990220.6641788,-14,-2,7,13,16,-2,-31,7
1584990220.6641788,10,18,6,30,59,38,-55,12
1584990220.6758068,-7,-24,-4,-14,-12,-16,-29,-4
1584990220.6758068,25,-8,-1,-4,-5,-18,2,-12
1584990220.684289,-18,-7,4,1,-1,-4,-35,-19
1584990220.684289,-22,-14,-5,-3,-10,-13,-6,0
1584990220.6992753,23,-5,-6,10,13,9,-5,-7
1584990220.6992753,22,54,17,-7,-9,28,52,50
1584990220.7010453,-110,-17,-10,-16,-32,-74,4,-23
1584990220.7010453,33,-35,-3,5,26,17,-76,6
1584990220.721845,15,-6,-4,-11,-6,-10,-9,-15
1584990220.721845,16,17,-4,-5,-3,-8,-18,5
1584990220.7237563,3,-15,5,-5,-11,54,-13,2
1584990220.7237563,-15,-13,2,3,3,-29,-46,-33
1584990220.7355206,4,12,-5,7,5,-1,-16,21
1584990220.7355206,-8,-4,-3,-33,-32,-5,7,-2
1584990220.7442696,-2,-3,-2,15,-5,-27,-32,-20
1584990220.7442696,7,4,23,8,38,25,6,38
1584990220.759725,5,-7,-4,-6,-35,4,36,-13
1584990220.759725,-15,5,4,3,-2,-43,-103,-8
1584990220.7613964,3,0,1,5,-5,-9,-8,8
1584990220.7613964,6,-18,-6,0,4,-2,14,5
1584990220.780872,-13,28,14,6,5,3,33,-1
1584990220.780872,1,-37,-12,-1,4,-4,-7,6
1584990220.7892897,-32,20,11,6,5,16,5,-11
1584990220.7892897,20,-13,2,-2,2,-2,5,3
1584990220.8042877,7,-2,-17,-3,-6,-1,14,-2
1584990220.8042877,4,-17,-7,-4,-1,4,8,8
1584990220.8060935,-4,-3,2,6,0,-7,-59,-14
1584990220.8060935,-3,-5,2,-6,-2,-4,16,-4
1584990220.819301,3,11,7,22,16,-2,-9,5
1584990220.819301,-10,-3,-9,-12,-8,11,9,2
1584990220.820705,-1,-9,2,3,-8,0,-3,-3
1584990220.820705,5,0,7,17,14,0,3,0
1584990220.8418536,5,4,-6,-38,-38,-15,-24,-5
1584990220.8418536,-3,-1,-4,-14,-25,-8,13,-8
1584990220.8442068,0,-3,2,27,3,-11,-14,0
1584990220.8442068,-3,1,0,-19,9,8,2,-9
1584990220.8643234,3,-2,-2,9,3,11,-25,5
1584990220.8643234,-1,5,-2,5,-1,-34,19,-2
1584990220.8660977,1,-3,-1,-1,-2,16,26,2
1584990220.8660977,-2,-5,1,-4,-3,5,16,-4
1584990220.877951,2,5,-1,1,0,-1,-4,9
1584990220.877951,-9,-1,-4,-3,-2,-5,-10,-24
1584990220.8867984,3,0,-2,-4,-4,-4,18,2
1584990220.8867984,3,-5,1,-1,2,5,-11,19
1584990220.9017684,3,0,-2,0,-1,2,-19,7
1584990220.9017684,-14,2,-7,3,-3,-4,-1,-6
1584990220.9035444,28,-7,-6,-6,0,7,9,-13
1584990220.9035444,-40,-11,0,-5,0,1,6,-51
1584990220.9243555,5,13,9,19,-3,0,-14,24
1584990220.9243555,4,5,0,-11,7,15,24,13
1584990220.9260325,1,-3,-2,-13,-6,-17,19,3
1584990220.9260325,14,-1,-5,-5,-4,-7,-4,-1
1584990220.9379685,16,7,-1,27,16,6,5,45
1584990220.9379685,-86,-14,-4,-24,-9,2,-11,-117
1584990220.9468088,11,-2,-4,6,-2,0,0,26
1584990220.9468088,0,-3,-2,-10,-7,-9,-6,-34
1584990220.968335,9,5,-1,16,-2,-1,0,11
1584990220.968335,13,6,-4,-25,0,1,0,23
1584990220.9849277,21,1,6,4,-5,3,4,18
1584990220.9849277,-18,-5,-1,-10,4,-5,1,5
1584990220.9858117,-66,-9,-3,15,5,10,-8,-53
1584990220.9858117,42,3,4,-1,-12,-33,2,1
1584990220.987116,-10,-5,-2,-3,0,-3,-1,5
1584990220.987116,-14,-8,-6,-3,3,-11,3,-2
1584990220.9992216,10,-2,-4,-8,6,-3,-3,1
1584990220.9992216,15,14,1,31,9,17,1,13
1584990221.0010035,-21,-7,-2,-27,-16,-8,3,20
1584990221.0010035,-4,2,5,2,-3,7,5,13
1584990221.0217314,-7,8,-1,6,5,13,2,-17
1584990221.0217314,-15,-19,-12,-4,1,3,-10,-47
1584990221.0235605,7,-3,-4,-16,-7,-21,-5,13
1584990221.0235605,-10,-6,0,1,-2,-3,2,2
1584990221.044268,60,13,4,7,0,3,8,33
1584990221.044268,-64,2,3,4,3,16,3,14
1584990221.0459392,60,-12,-2,3,-3,-20,-13,-27
1584990221.0459392,74,7,1,-10,0,3,0,5
1584990221.0667734,-25,8,4,7,4,-1,8,33
1584990221.0667734,-25,11,-4,-4,-2,-1,1,11
1584990221.0681815,-39,-22,-6,0,-1,4,-5,-57
1584990221.0681815,25,12,2,5,-1,-2,0,-29
1584990221.0967789,69,12,6,-2,-4,0,5,35
1584990221.0967789,-57,-5,-1,2,3,4,4,21
1584990221.0985227,15,-5,-10,-9,0,-8,-6,0
1584990221.0985227,-6,0,2,-3,-7,-10,-9,-51
1584990221.1043172,-63,3,-1,2,4,-11,6,-22
1584990221.1043172,58,-12,-8,-7,0,25,-1,35
1584990221.105786,12,-3,3,4,1,6,6,10
1584990221.105786,10,2,1,1,-4,-1,0,9
1584990221.1179307,31,0,1,1,0,-1,2,7
1584990221.1179307,-32,2,-3,0,-1,-1,-4,4
1584990221.1268108,-2,-2,-1,0,0,1,2,-9
1584990221.1268108,17,4,3,-1,-1,0,3,4
1584990221.141867,-26,-3,1,0,0,1,-5,9
1584990221.141867,-30,4,-3,5,-3,3,3,-14
1584990221.145177,31,-18,-11,-9,-6,-4,-16,-48
1584990221.145177,-9,-5,5,-1,1,-3,-2,-28
1584990221.1633568,2,8,6,2,3,2,7,21
1584990221.1633568,28,13,4,6,-4,1,2,22
1584990221.1799178,-78,-17,0,0,4,5,2,-14
1584990221.1799178,-106,-30,-5,-6,2,-4,-7,-14
1584990221.1809602,-5,2,-1,1,2,-2,-1,-27
1584990221.1809602,9,13,3,3,1,-3,-2,0
1584990221.1872714,-5,-3,1,-4,-4,-6,1,-3
1584990221.1872714,14,-8,0,-1,1,0,0,3
1584990221.203034,-13,1,0,-7,-4,-1,-2,-2
1584990221.203034,16,2,3,0,1,0,-3,0
1584990221.2050204,11,-2,1,1,2,3,1,5
1584990221.2050204,5,-1,-3,-3,1,0,-4,20
1584990221.2244585,1,2,-4,0,-1,-3,2,-23
1584990221.2244585,9,4,-3,2,2,-2,0,-2
1584990221.226447,1,0,-1,0,-6,-2,1,9
1584990221.226447,0,0,2,0,-2,-1,3,-2
1584990221.2381566,-14,0,-3,3,-1,-1,0,-8
1584990221.2381566,45,6,4,1,2,0,3,6
1584990221.2467678,-37,-7,0,0,2,3,-3,-7
1584990221.2467678,22,-2,2,0,0,0,3,13
1584990221.2617507,-37,2,1,-3,2,-1,0,-33
1584990221.2617507,22,6,-4,-1,-2,-1,3,7
1584990221.2641819,-4,-6,-1,-5,0,-4,0,-11
1584990221.2641819,6,-10,-7,-3,-2,-4,-1,-7
1584990221.2842672,-3,8,3,3,-3,-6,-1,2
1584990221.2842672,5,-7,-1,2,-1,1,1,3
1584990221.2856846,19,-2,2,1,-3,2,0,5
1584990221.2856846,-12,-4,-3,-2,-1,-2,-3,-6
1584990221.2979236,0,2,1,-3,-1,1,-1,0
1584990221.2979236,20,1,-3,1,0,-1,-1,3
1584990221.3067858,9,-1,0,0,2,1,-1,3
1584990221.3067858,-24,-9,-2,-1,-1,1,-3,-5
1584990221.3217292,9,5,-2,1,-2,2,1,3
1584990221.3217292,5,0,-5,-5,0,-2,-4,-6
1584990221.3234668,11,-1,0,0,0,2,-1,3
1584990221.3234668,-19,0,1,4,-1,-3,2,2
1584990221.3447087,-1,2,2,1,2,-2,-1,-4
1584990221.3447087,3,6,1,0,-1,-2,3,0
1584990221.3464777,-67,-22,-3,-3,2,-3,-7,-31
1584990221.3464777,9,3,-3,-4,-7,-2,1,5
1584990221.3581212,7,10,2,-1,-3,3,6,9
1584990221.3581212,-12,1,1,0,-1,-3,-1,-7
1584990221.3667912,32,-7,-5,0,4,-1,3,0
1584990221.3667912,-122,-16,-2,-5,-3,-2,-8,-26
1584990221.3817728,23,11,4,-2,-4,-2,0,8
1584990221.3817728,7,4,0,3,0,0,3,-4
1584990221.3836203,28,-2,-3,0,0,2,0,12
1584990221.3836203,-35,-12,-4,-3,1,-1,-3,-7
1584990221.404307,11,8,-2,-2,3,0,1,7
