timestamp,emg1,emg2,emg3,emg4,emg5,emg6,emg7,emg8
1584990410.6624794,1,2,-1,-3,1,-2,0,0
1584990410.664426,4,1,2,-1,-2,-2,2,-3
1584990410.664426,2,-4,0,-1,-3,3,-1,-5
1584990410.6772592,-18,-2,-2,-1,2,-2,-1,0
1584990410.6772592,1,1,-2,1,2,-2,-1,0
1584990410.679019,8,4,0,3,-3,1,-3,-1
1584990410.679019,4,-7,-2,-5,-1,0,-2,4
1584990410.7001143,0,-1,-2,-6,-4,2,1,3
1584990410.7001143,-6,-2,0,1,0,-1,1,3
1584990410.7018661,-4,0,-1,2,-4,-3,1,-8
1584990410.7018661,1,-4,2,0,-1,0,1,1
1584990410.7132697,6,0,-4,0,-1,0,-1,4
1584990410.7132697,4,1,1,-1,1,-1,0,0
1584990410.7221541,-14,-6,-3,-2,-1,2,-1,-4
1584990410.7221541,6,-7,-4,-1,-2,0,-1,-1
1584990410.7371004,11,9,6,-1,1,0,0,3
1584990410.7371004,0,-1,1,-4,1,-1,0,1
1584990410.7385345,-4,-2,-8,-1,0,1,-1,1
1584990410.7385345,7,-1,4,0,1,-1,1,4
1584990410.7596385,-30,-8,-2,-1,-1,1,-2,-4
1584990410.7596385,8,3,-1,-2,-1,-2,-3,0
1584990410.7613704,7,10,5,-2,-2,0,0,1
1584990410.7613704,11,-1,-1,0,-2,0,3,7
1584990410.7733016,24,-4,-4,-4,3,-2,0,2
1584990410.7733016,-44,0,-5,1,0,-3,-2,-9
1584990410.7821465,-10,1,-1,-1,2,0,1,-13
1584990410.7821465,2,0,0,-3,-1,-3,1,2
1584990410.7971368,9,1,-5,-2,2,0,0,1
1584990410.7971368,6,0,0,0,0,1,-1,5
1584990410.798902,1,2,3,3,-1,0,-1,2
1584990410.798902,5,-6,1,-1,0,-1,-3,0
1584990410.8196304,-2,-3,-1,-1,3,3,-1,-3
1584990410.8196304,-14,1,0,-4,0,-2,-2,-8
1584990410.821351,-5,-5,-3,0,-2,0,-2,0
1584990410.821351,4,-3,2,-2,-4,-1,-1,0
1584990410.8332767,7,9,5,3,0,1,1,3
1584990410.8332767,3,3,0,0,1,-2,0,-3
1584990410.8421335,-12,-4,1,2,2,3,0,-2
1584990410.8421335,1,0,0,-4,-1,2,-1,1
1584990410.8573048,3,0,0,0,-3,0,2,-1
1584990410.8573048,11,5,0,2,2,-3,2,-1
1584990410.8589997,-8,-2,1,1,-1,-5,0,-2
1584990410.8589997,4,-1,-1,1,-2,-1,-3,-1
1584990410.8796456,-11,-4,1,2,-1,-3,1,-10
1584990410.8796456,-28,-2,-2,0,-2,-3,-2,-3
1584990410.8814864,13,-1,-1,1,-1,-3,1,3
1584990410.8814864,11,1,0,0,-1,5,-1,4
1584990410.893306,5,-2,2,1,1,1,-5,3
1584990410.893306,8,6,-1,0,0,-2,-1,-3
1584990410.9022427,-26,0,0,-1,0,-2,-1,-5
1584990410.9022427,5,2,1,2,1,1,2,-2
1584990410.91713,3,-7,-7,-2,-4,1,-1,10
1584990410.91713,1,-1,-3,0,-1,2,-2,-8
1584990410.9191785,-2,2,4,1,5,-2,-1,0
1584990410.9191785,-6,-4,2,-1,0,-2,0,-3
1584990410.9401205,4,0,-4,2,3,-2,0,3
1584990410.9401205,8,-5,-6,-1,-5,0,0,3
1584990410.9415166,-34,1,0,-5,-4,0,-1,-10
1584990410.9415166,0,0,0,-1,1,0,0,-3
1584990410.9625764,9,0,1,4,-2,-1,3,2
1584990410.9625764,-5,-1,-1,-2,-1,-3,1,-1
1584990410.964157,10,-2,-1,-3,0,0,1,6
1584990410.964157,14,-5,-3,-1,-3,0,-1,-3
1584990410.9773247,-35,-3,-1,1,-1,-2,-1,-7
1584990410.9773247,7,2,-1,-2,2,0,0,3
1584990410.97915,9,10,7,-1,-3,0,3,2
1584990410.97915,6,-3,2,0,-1,0,2,5
1584990410.999636,7,-2,3,1,4,1,2,5
1584990410.999636,-23,1,-1,-1,-2,-1,-3,-4
1584990411.0015876,5,0,-1,-2,1,-1,1,4
1584990411.0015876,27,1,1,2,1,2,0,7
1584990411.022445,-46,-8,2,-2,1,-12,-3,-23
1584990411.022445,-46,1,-3,-2,-6,12,-6,-7
1584990411.024354,19,2,0,1,1,-2,2,5
1584990411.024354,13,0,-4,-5,0,0,-2,1
1584990411.037157,2,2,-1,0,-1,-1,3,-1
1584990411.037157,3,0,-1,-1,-2,-2,-1,2
1584990411.0384839,-1,-3,1,1,-3,0,3,1
1584990411.0384839,-3,-4,-5,-1,0,-2,0,-3
1584990411.0596175,-3,-2,-5,-5,1,1,0,-3
1584990411.0596175,-7,0,-3,-2,2,-1,-1,0
1584990411.0613973,-1,2,-1,2,3,-1,1,0
1584990411.0613973,0,0,0,-2,-4,-1,-3,3
1584990411.0827763,2,-1,-2,-2,0,-1,0,2
1584990411.0827763,2,2,-2,2,-1,0,1,1
1584990411.0845468,11,2,2,3,0,1,2,5
1584990411.0845468,3,2,2,-1,-3,-1,-2,1
1584990411.0975332,-68,-4,-1,0,2,-1,-8,-12
1584990411.0975332,8,3,-4,0,0,1,0,-6
1584990411.1032202,17,1,-1,0,0,0,-3,3
1584990411.1032202,17,0,1,2,1,-1,2,4
1584990411.119593,1,-2,1,0,3,1,0,2
1584990411.119593,-4,-1,-3,-1,1,0,-3,-6
1584990411.1213527,2,-4,-1,1,1,-1,1,3
1584990411.1213527,3,-3,0,-1,-2,1,0,6
1584990411.1427422,22,5,4,2,-2,2,0,2
1584990411.1427422,-3,5,1,1,-3,-2,1,1
1584990411.1454284,-36,-7,-1,-3,-5,-2,-4,-13
1584990411.1454284,4,0,2,-1,-2,-2,-1,1
1584990411.1562767,-9,-1,-1,-5,1,0,-5,2
1584990411.1562767,27,2,-3,-1,1,0,1,10
1584990411.16455,44,6,6,1,1,3,8,21
1584990411.16455,-79,-14,-4,-1,3,-5,-7,-39
1584990411.1803694,-25,-8,-2,-3,-3,-7,-3,-12
1584990411.1803694,20,0,-6,-3,-1,-3,1,3
1584990411.1837027,-7,1,-1,3,-5,-3,-1,2
1584990411.1837027,14,2,1,0,2,2,2,2
1584990411.2027497,19,-1,0,-3,-3,0,3,5
1584990411.2027497,-37,-5,-2,-2,-3,1,2,-5
1584990411.204133,3,2,-2,-1,-1,0,1,-2
1584990411.204133,19,-2,1,1,1,0,0,3
1584990411.2170868,-25,-1,-2,0,0,-1,-3,-4
1584990411.2170868,7,6,0,-1,-2,-1,-1,0
1584990411.2202997,1,-3,-1,-1,1,2,3,-1
1584990411.2202997,34,2,0,2,3,2,2,12
1584990411.239622,9,1,0,-1,-3,1,2,13
1584990411.239622,-94,-18,-10,-4,-7,-3,-14,-60
1584990411.241036,13,2,1,3,-1,1,2,2
1584990411.241036,12,1,3,0,1,-7,-1,6
1584990411.2624333,13,2,-3,-3,5,5,2,5
1584990411.2624333,21,-1,-2,-1,-1,-4,2,1
1584990411.264485,-48,-4,-3,-1,-1,0,-2,-3
1584990411.264485,4,0,0,0,2,2,1,10
1584990411.2759218,15,0,-4,-4,2,2,-1,3
1584990411.2759218,17,9,5,2,2,3,4,-1
1584990411.2845788,-55,-5,-3,1,-1,-3,-1,-12
1584990411.2845788,-43,-13,-6,-2,-5,-2,-5,-19
1584990411.2995992,23,-2,-1,-3,-3,-5,1,13
1584990411.2995992,30,7,5,2,0,-6,1,2
1584990411.3013482,23,-1,0,-2,-4,-1,-1,17
1584990411.3013482,-13,-5,-5,-1,-3,-7,-6,-12
1584990411.3223224,7,2,-2,5,0,-6,1,0
1584990411.3223224,40,2,-1,2,5,6,3,13
1584990411.3241978,-53,-4,0,-1,-1,-5,-3,-1
1584990411.3241978,-4,-1,0,-1,1,7,2,-12
1584990411.3358598,32,3,0,2,3,5,4,23
1584990411.3358598,-26,-2,-4,-3,-3,-10,-4,-36
1584990411.3446043,4,1,0,-1,-4,20,0,8
1584990411.3446043,11,4,2,2,4,10,-5,27
1584990411.3595817,-5,-4,-2,0,-3,-4,-6,-28
1584990411.3595817,4,2,-2,-4,1,-7,0,8
1584990411.3609834,5,1,-1,0,-4,-3,5,16
1584990411.3609834,7,-1,4,1,3,7,1,11
1584990411.3824077,-2,0,0,-6,-1,0,13,8
1584990411.3824077,1,4,1,3,3,-4,-2,10
1584990411.3836281,-2,0,2,-1,-3,-3,0,-10
1584990411.3836281,7,-4,-1,-2,0,5,1,12
1584990411.3958867,-17,-9,-3,2,2,-2,-4,-25
1584990411.3958867,0,2,2,5,1,0,-1,-2
1584990411.4046357,-1,-2,-5,0,2,18,2,-20
1584990411.4046357,-4,-3,1,0,-8,-57,-16,-3
1584990411.4195936,1,1,-2,4,6,59,-7,6
1584990411.4195936,4,2,-2,-4,-9,-83,-13,-7
1584990411.421309,-5,-5,-2,-2,8,18,5,-9
1584990411.421309,-3,-1,1,4,-10,-28,22,-12
1584990411.4424162,-4,2,1,3,8,43,-18,7
1584990411.4424162,-8,-5,-6,-8,-19,-52,27,-48
1584990411.4441812,13,5,1,5,8,28,-36,44
1584990411.4441812,-9,-7,-2,-2,8,-53,11,-8
1584990411.455876,-18,-13,-11,-16,75,-65,-31,-13
1584990411.455876,6,1,0,-6,11,-13,0,26
1584990411.464583,21,8,8,7,0,-20,2,63
1584990411.464583,-2,-6,3,-10,-72,4,30,-84
1584990411.4796152,-7,-1,2,7,-24,61,-5,-36
1584990411.4796152,-3,2,1,-17,18,-65,36,-15
1584990411.4814374,-12,2,-9,8,-128,79,-48,19
1584990411.4814374,32,21,15,41,111,127,107,101
1584990411.5023744,17,-5,-8,-35,33,91,-38,4
1584990411.5023744,13,-4,3,-6,-128,-128,-98,34
1584990411.504048,46,7,6,11,-14,32,-52,57
1584990411.504048,-42,3,4,25,83,56,7,1
1584990411.5159004,20,0,-4,5,103,94,21,3
1584990411.5159004,8,11,13,23,126,127,20,60
1584990411.5245776,-33,-24,-24,-108,-75,-112,-55,-128
1584990411.5245776,7,3,3,23,127,-38,-5,5
1584990411.5395806,6,-21,-21,0,95,-26,3,6
1584990411.5395806,-30,-10,-10,-113,-128,-32,-22,-78
1584990411.5412426,15,19,9,115,127,26,94,40
1584990411.5412426,-23,-8,2,-47,-128,83,-61,-100
1584990411.5627127,54,24,7,-109,-128,23,60,84
1584990411.5627127,-12,-5,-3,127,24,7,-46,-55
1584990411.564412,-86,-18,-8,53,-106,127,-2,76
1584990411.564412,9,5,6,10,115,127,106,-17
1584990411.5758255,112,3,-17,-17,104,127,49,127
1584990411.5758255,-30,1,13,14,127,111,-80,-121
1584990411.5845995,-3,17,27,39,127,127,78,-13
1584990411.5845995,97,-2,-31,-70,127,127,44,57
1584990411.599583,-83,-17,8,2,6,-128,9,-10
1584990411.599583,15,19,9,-102,-15,127,34,18
1584990411.6013992,-15,-8,-5,77,127,-52,38,0
1584990411.6013992,29,17,17,50,-65,-31,-57,14
1584990411.6223862,41,2,-1,18,127,9,50,53
1584990411.6223862,-5,-7,-1,-25,40,43,17,-18
1584990411.623741,-23,3,13,28,-128,-27,9,3
1584990411.623741,6,2,-8,-86,127,-40,-47,-4
1584990411.637046,1,3,6,23,30,-46,-7,20
1584990411.637046,26,19,17,41,70,127,113,61
1584990411.6446855,9,2,7,-26,-56,-94,-43,-6
1584990411.6446855,-5,-8,-6,-30,-37,-128,-108,-34
1584990411.6582747,-59,0,0,14,6,118,41,78
1584990411.6582747,20,14,9,19,-128,70,6,2
1584990411.6671357,39,19,10,-71,69,7,-40,89
1584990411.6671357,-97,6,14,-41,-128,-50,20,-21
1584990411.6827803,22,-16,0,-21,43,36,-63,21
1584990411.6827803,32,-5,5,-128,-123,-44,-44,-24
1584990411.6844773,41,10,-4,-21,-75,-128,-34,53
1584990411.6844773,20,4,2,38,-47,-10,47,30
1584990411.69588,17,8,6,29,-128,-90,-47,-8
1584990411.69588,36,7,8,-35,-25,-56,-12,25
1584990411.7046378,-24,-3,4,-100,97,-48,-26,29
1584990411.7046378,-38,3,18,23,17,60,-1,-80
1584990411.7195406,-11,-11,-2,101,127,84,-17,-36
1584990411.7195406,1,0,-2,-20,-105,-40,-40,17
1584990411.721109,-12,2,1,-11,-37,88,2,-23
1584990411.721109,5,10,6,-9,-51,-14,48,17
1584990411.742411,5,4,5,7,44,38,-47,93
1584990411.742411,68,14,5,-29,-17,75,8,44
1584990411.744466,6,-6,-5,2,-13,36,0,49
1584990411.744466,-124,-23,-9,3,75,-10,-17,-98
1584990411.755885,13,5,-4,1,-11,-16,-4,36
1584990411.755885,38,11,8,-61,46,-3,19,41
1584990411.7721028,35,2,-6,-20,127,-23,16,8
1584990411.7721028,11,-2,1,54,25,119,39,51
1584990411.7795837,-10,3,3,68,-61,26,13,-36
1584990411.7795837,25,4,-10,-22,-18,-29,-39,36
1584990411.781326,-17,-9,-2,-12,0,-30,-4,-33
1584990411.781326,2,4,5,66,3,-8,-6,-4
1584990411.802405,1,1,-4,-17,43,-27,-39,-9
1584990411.802405,4,5,3,-18,-5,34,60,7
1584990411.8042858,4,-1,-2,-3,-3,71,-29,14
1584990411.8042858,-5,1,0,9,121,-21,-38,-6
1584990411.8159,-8,1,-2,2,-7,-14,-6,-38
1584990411.8159,-2,0,-3,-4,-13,12,-9,7
1584990411.8246028,-7,-6,-1,2,-2,-8,33,-8
1584990411.8246028,3,1,0,-6,-8,-5,0,-9
1584990411.83955,-1,5,5,6,-17,5,13,1
1584990411.83955,0,1,3,1,1,-1,15,23
1584990411.8409557,2,-1,-4,17,13,30,5,-4
1584990411.8409557,3,-5,0,0,0,0,0,-3
1584990411.862373,1,2,-4,-4,-1,-4,-1,1
1584990411.862373,-2,-4,-3,-2,-2,-2,-1,-1
1584990411.8642159,2,-4,5,-1,1,-4,-2,-1
1584990411.8642159,-5,-1,-4,-4,2,-1,-1,3
1584990411.8758602,21,5,1,-2,10,6,1,13
1584990411.8758602,39,21,17,2,-1,1,4,10
1584990411.884581,-51,-5,-4,1,-1,-3,-6,-12
1584990411.884581,-59,-20,-21,-8,-5,-2,-5,-14
1584990411.8995671,6,0,8,1,-4,-1,-3,12
1584990411.8995671,35,17,8,1,0,1,2,7
1584990411.9013753,27,0,-4,3,-2,1,3,6
1584990411.9013753,16,-4,-10,-6,-1,0,0,5
1584990411.9223258,-1,-7,-5,1,0,-4,-2,-1
1584990411.9223258,-6,11,3,2,8,3,3,-1
1584990411.9238377,3,5,5,-4,0,1,-2,0
1584990411.9238377,-4,-3,0,4,1,-3,-2,-3
1584990411.9358773,-3,-5,-2,0,4,2,0,2
1584990411.9358773,0,-5,-4,-4,-1,-4,-1,-3
1584990411.9446485,-5,0,-3,-5,0,-4,-3,-4
1584990411.9446485,3,-7,-6,-6,-2,-1,0,-2
1584990411.9595842,-1,3,2,3,1,-1,0,-1
1584990411.9595842,-1,-2,-6,-1,0,0,-1,-1
1584990411.9671764,-3,3,6,-2,0,1,-3,-1
1584990411.9671764,5,-6,5,-3,2,2,-1,4
1584990411.982123,11,10,3,2,-1,-6,-3,1
1584990411.982123,-15,-5,-8,-2,5,-1,1,4
1584990411.9841099,2,-3,2,-3,-1,-2,-1,1
1584990411.9841099,-24,17,3,1,-2,2,-2,-5
1584990412.0045662,-14,1,-5,-3,0,2,2,1
1584990412.0045662,19,0,-3,0,0,-5,-3,-1
1584990412.006345,5,-2,8,-3,-3,1,-2,0
1584990412.006345,23,0,-1,-3,2,1,-2,6
1584990412.019615,4,-13,2,0,-2,-2,0,4
1584990412.019615,-20,0,0,2,-2,-3,-2,-3
1584990412.0214398,-10,-3,-3,0,1,1,-6,-2
1584990412.0214398,8,-1,-8,-4,-2,-2,-3,1
1584990412.041209,16,2,-1,3,0,-2,0,5
1584990412.041209,-42,-7,1,0,-6,1,0,-9
1584990412.0495787,4,-5,-6,-3,-1,1,-2,7
1584990412.0495787,-5,-10,-2,-1,3,2,2,4
1584990412.0648158,-15,-6,-7,-2,1,-3,-1,-9
1584990412.0648158,3,-11,-3,2,0,0,1,1
1584990412.0673084,-6,14,19,5,3,0,0,-1
1584990412.0673084,8,3,-9,-2,-2,-1,-1,1
1584990412.0784438,27,-5,-8,0,0,0,2,11
1584990412.0784438,11,10,8,4,0,-4,-2,0
1584990412.0871003,-47,-6,-6,-4,0,1,0,15
1584990412.0871003,2,-12,-11,-4,-1,-3,-6,-42
1584990412.1021981,-10,3,12,2,-1,1,-3,-10
1584990412.1021981,2,21,18,3,-1,3,4,12
1584990412.104113,16,-3,-7,-1,0,-1,4,14
1584990412.104113,40,-1,-4,-3,0,1,3,9
1584990412.1245673,-15,-16,-4,-4,-3,-1,3,8
1584990412.1245673,-3,13,1,0,-1,-3,0,20
1584990412.1259367,-36,2,7,5,6,1,-1,-16
1584990412.1259367,-64,-18,-9,-6,-7,-6,-11,-48
1584990412.1382217,7,5,2,1,-3,0,1,-4
1584990412.1382217,30,6,-6,-3,0,-2,2,17
1584990412.1545858,12,-2,1,7,1,2,4,26
1584990412.1545858,80,0,3,-2,6,2,5,5
1584990412.1621413,-8,43,9,4,-1,-4,4,12
1584990412.1621413,10,1,1,2,-3,-1,0,25
1584990412.1640224,-128,-49,-8,-5,0,-5,-16,-87
1584990412.1640224,6,-3,-11,-5,-5,0,-9,-42
1584990412.1845622,49,-6,-4,6,-1,2,7,17
1584990412.1845622,11,28,12,2,-1,-1,5,9
1584990412.186421,-11,8,16,-1,-2,-5,-2,-6
1584990412.186421,6,5,-4,-1,2,4,2,8
1584990412.1984222,-3,2,2,-1,1,-4,-3,-16
1584990412.1984222,-17,-8,-10,0,0,0,-1,7
1584990412.2070544,17,-8,-6,-3,-4,1,-2,6
1584990412.2070544,0,-2,3,2,0,0,0,13
1584990412.2222977,-23,0,0,1,-1,1,2,-2
1584990412.2222977,19,0,-3,-1,0,0,-1,29
1584990412.2241483,-10,-4,-1,-1,-4,0,-2,-29
1584990412.2241483,-55,-19,-7,-1,-4,-3,-8,-20
1584990412.243951,7,29,4,1,3,2,2,24
1584990412.243951,99,3,-1,-2,1,-1,2,5
1584990412.2452476,-42,14,15,7,5,7,9,3
1584990412.2452476,-24,-15,-8,-2,0,-2,-8,12
1584990412.266343,17,-9,-7,-7,-4,-7,-8,-30
1584990412.266343,2,-1,-6,-1,-1,-1,3,-21
1584990412.2672448,1,7,3,-2,1,1,5,28
1584990412.2672448,65,29,14,7,5,5,10,8
1584990412.2813296,-103,-33,-6,-7,-9,-1,-7,-27
1584990412.2813296,-4,-16,-10,-7,-8,-5,-10,1
1584990412.2822633,9,10,3,0,2,1,3,-2
1584990412.2822633,20,0,-1,2,5,5,4,11
1584990412.3040333,6,3,5,3,4,6,-1,6
1584990412.3040333,-3,6,5,0,3,4,3,10
1584990412.3054173,-2,-7,-6,-1,-5,-2,-2,-4
1584990412.3054173,-9,-8,-6,-3,-3,2,3,25
1584990412.3281457,-2,0,-3,0,0,-3,-18,-40
1584990412.3281457,3,3,2,1,-4,0,1,5
1584990412.3293803,-40,-4,0,0,-4,-7,-1,8
1584990412.3293803,45,0,0,1,1,7,4,2
1584990412.3413527,-10,-5,4,-2,-1,5,-4,-3
1584990412.3413527,-88,-2,-2,-4,-1,-4,-1,-22
1584990412.3422832,34,3,3,8,4,-3,4,15
1584990412.3422832,16,-3,-3,-2,1,6,5,3
1584990412.363838,8,-9,-6,-5,0,0,-2,-12
1584990412.363838,57,8,-2,0,-3,-2,3,-20
1584990412.3652036,-91,-10,3,-1,5,2,-7,-22
1584990412.3652036,3,8,8,-2,-3,-2,1,8
1584990412.386346,6,-4,-9,-4,-2,-1,3,10
1584990412.386346,31,1,2,-1,-1,1,-1,1
1584990412.3876204,-1,4,3,2,0,0,2,9
1584990412.3876204,-8,-5,-3,-3,2,-2,-1,5
1584990412.401362,20,1,2,3,1,-5,-2,9
1584990412.401362,-4,2,-4,0,-3,10,-4,-14
1584990412.4022868,-44,-11,-8,-1,-5,2,0,-8
1584990412.4022868,0,1,1,0,3,0,2,6
1584990412.4239354,18,0,5,2,1,-5,4,-3
1584990412.4239354,14,7,-8,-3,-1,-2,-4,-1
1584990412.425251,18,-2,1,0,-2,2,0,4
1584990412.425251,-42,1,13,2,2,-2,2,6
1584990412.446349,14,1,-5,0,-5,-3,1,-10
1584990412.446349,-55,-14,-8,-6,-8,-5,-9,-33
1584990412.4472737,-41,-5,-5,-4,0,2,3,-4
1584990412.4472737,99,2,-1,-1,2,-2,4,20
1584990412.46129,-65,4,2,2,1,0,6,3
1584990412.46129,-39,0,2,-5,-8,-2,-3,-19
1584990412.4621851,10,-1,-4,-4,9,3,-5,-8
1584990412.4621851,-10,-9,-6,1,0,-4,-1,-12
1584990412.4840305,11,11,12,2,20,0,5,16
1584990412.4840305,2,2,-7,-2,-6,0,4,10
1584990412.4852388,-5,-4,-3,1,-2,-2,-5,2
1584990412.4852388,3,-1,-1,0,-5,0,-2,-7
1584990412.507033,1,-3,-2,-3,-4,-1,-3,4
1584990412.507033,-4,0,-1,1,-3,2,0,4
1584990412.5082946,-2,-2,5,-2,-1,1,-1,6
1584990412.5082946,0,1,-3,5,-1,-1,-2,-12
1584990412.5213764,-1,1,6,1,-1,1,2,2
1584990412.5213764,-6,0,1,0,0,-1,1,-17
1584990412.522327,-7,2,-6,-2,1,0,-7,-5
1584990412.522327,17,5,5,0,2,-1,5,5
1584990412.543913,38,2,-2,-1,-2,0,-3,14
1584990412.543913,-2,-11,-6,-1,1,-4,-6,15
1584990412.5452933,36,-2,-1,-6,1,-1,4,12
1584990412.5452933,-32,-2,4,3,2,-6,-3,-8
1584990412.5669854,4,1,2,2,8,3,7,17
1584990412.5669854,-42,-7,-6,5,0,1,-5,-15
1584990412.5677752,72,10,5,-8,0,0,6,29
1584990412.5677752,-91,-16,-5,-2,-6,-5,-2,-11
1584990412.5813909,12,-1,-4,4,2,0,7,10
1584990412.5813909,44,8,6,8,2,2,3,14
1584990412.5823684,11,-8,3,-1,2,-1,4,-17
1584990412.5823684,-42,-9,-8,-2,0,2,-4,6
1584990412.6043932,27,-3,-8,-2,-1,-2,-4,3
1584990412.6043932,12,11,11,3,-1,0,0,10
1584990412.6057456,4,4,8,4,1,-1,0,-18
1584990412.6057456,-13,-16,-15,-5,-1,-5,-2,2
1584990412.626991,11,-1,0,0,-2,1,2,-6
1584990412.626991,6,7,-3,-1,-4,-3,1,-5
1584990412.6283,-5,-7,-6,-9,-3,2,0,2
1584990412.6283,-4,-2,0,4,2,4,1,16
1584990412.641327,14,15,23,6,2,-1,1,-2
1584990412.641327,12,-8,-8,-4,2,0,1,6
1584990412.6422164,-33,-11,-12,-2,-4,-2,-2,-15
1584990412.6422164,41,6,6,2,-2,0,4,11
1584990412.6639338,-29,-2,-3,1,-2,-3,1,-21
1584990412.6639338,42,9,-1,2,-4,-3,-3,7
1584990412.6648605,-44,-8,-5,-1,-1,5,-5,-9
1584990412.6648605,-20,2,5,0,3,3,3,11
1584990412.6870217,33,5,7,3,0,2,1,-13
1584990412.6870217,-7,0,-7,-1,-4,-2,-1,12
1584990412.6883698,19,-4,-3,-2,1,-5,3,-5
1584990412.6883698,-9,-5,-5,-3,-2,0,1,3
1584990412.701371,12,14,9,4,4,-1,2,21
1584990412.701371,-12,-1,2,-3,-1,0,-4,-9
1584990412.7022994,-7,-7,-5,-2,-3,-5,-5,-3
1584990412.7022994,1,3,6,1,0,2,1,7
1584990412.7238238,-19,3,0,3,1,1,-1,-2
1584990412.7238238,20,1,-3,-4,-6,1,2,8
1584990412.7248037,-5,-3,-3,-3,2,0,2,3
1584990412.7248037,21,1,2,2,4,0,-3,1
1584990412.7536016,-16,-3,-1,-1,-2,3,0,-12
1584990412.7536016,25,3,3,-1,0,0,0,16
1584990412.7611072,-1,0,3,4,0,-1,-3,-14
1584990412.7611072,14,2,3,0,-1,-1,-3,5
1584990412.7709255,56,8,4,-1,1,0,3,16
1584990412.7709255,-22,-3,-8,2,-4,-2,-1,-9
1584990412.7721913,31,-3,-2,2,-5,-2,-3,-1
1584990412.7721913,-7,-2,-1,-1,-2,0,1,8
1584990412.783931,4,0,3,2,0,-2,1,7
1584990412.783931,-24,-1,0,0,1,6,-5,-41
1584990412.7852304,10,0,0,0,-3,3,6,-1
1584990412.7852304,1,-4,-4,-2,-3,-2,0,7
1584990412.8070288,12,3,-1,0,-4,-4,-1,3
1584990412.8070288,4,4,2,15,7,-3,-1,-1
1584990412.8079512,-19,-10,-8,-28,-6,1,2,-1
1584990412.8079512,3,-7,1,3,1,-3,-2,-7
1584990412.821391,9,9,3,3,1,0,-1,2
1584990412.821391,-22,1,1,4,-1,-3,-3,-13
1584990412.8224893,24,0,-5,-1,0,-1,2,2
1584990412.8224893,-20,-14,-6,-5,-3,3,1,14
1584990412.843942,-78,-7,-4,-1,-3,-6,-10,-24
1584990412.843942,3,1,-7,-1,-1,-3,-2,-6
1584990412.8452277,3,-3,4,0,0,0,2,2
1584990412.8452277,2,4,7,0,2,2,0,5
1584990412.8670695,4,-2,-2,1,4,-1,3,2
1584990412.8670695,-1,-3,-4,-4,-1,-7,-2,0
1584990412.867997,-5,0,1,9,-1,3,4,1
1584990412.867997,2,-3,5,-12,-2,0,-1,2
1584990412.8817985,-3,7,3,3,1,17,4,6
1584990412.8817985,-3,-2,-5,-4,-7,-33,-5,-17
1584990412.8831131,4,0,-6,6,3,-2,0,3
1584990412.8831131,-3,2,0,-9,-2,5,0,4
1584990412.9038959,8,2,7,4,0,12,2,2
1584990412.9038959,2,-2,-3,5,-1,-22,-4,3
1584990412.9052215,34,-1,-1,-1,0,1,1,8
1584990412.9052215,0,-6,-3,-7,-3,-2,-2,-3
1584990412.9270043,-4,-2,-9,-4,1,-1,-1,7
1584990412.9270043,-1,3,12,5,-4,-4,-1,-28
1584990412.927944,4,5,6,-1,8,3,5,1
1584990412.927944,6,3,2,-1,-6,-15,-1,3
1584990412.9413345,-9,-1,-2,-3,0,5,-3,5
1584990412.9413345,14,0,-5,1,-2,-2,0,-1
1584990412.9423506,16,-4,-2,1,-1,-3,1,4
1584990412.9423506,-20,-1,0,-4,-2,-2,-2,-5
1584990412.9638538,4,4,4,12,-1,-1,-1,-3
1584990412.9638538,6,3,-1,-10,0,0,1,4
1584990412.9652967,6,2,4,4,3,-3,1,4
1584990412.9652967,4,-1,-1,-4,2,1,2,4
1584990412.986987,3,3,-2,-1,4,8,-2,2
1584990412.986987,0,2,0,3,2,-8,13,-6
1584990412.9882393,1,-1,-3,-6,-6,-2,7,-3
1584990412.9882393,10,0,-4,-2,7,51,7,5
1584990413.0013056,26,4,-4,-5,-11,-31,-2,12
1584990413.0013056,-35,5,6,5,-2,6,3,-18
1584990413.0021272,3,-16,-7,-4,-1,-15,6,-31
1584990413.0021272,-2,-5,-3,0,-7,2,50,4
1584990413.0238128,33,16,8,11,7,32,14,40
1584990413.0238128,12,2,-6,-3,-18,-51,35,-48
1584990413.0252144,0,-6,-3,-2,4,53,12,18
1584990413.0252144,-7,-14,-6,-13,-22,-93,0,-20
1584990413.0477555,19,5,-3,1,11,50,17,34
1584990413.0477555,-50,-3,1,-1,-8,-39,-3,-28
1584990413.0490856,20,-1,-1,-2,4,-4,17,-7
1584990413.0490856,21,7,2,1,3,18,8,13
1584990413.0613573,22,9,-1,1,-6,1,11,25
1584990413.0613573,1,1,-1,1,-1,-3,-1,-16
1584990413.062387,3,-3,-1,-1,1,-2,-2,5
1584990413.062387,4,-5,-3,-1,2,0,-5,8
1584990413.0838568,-3,0,-1,-3,0,11,-3,5
1584990413.0838568,-4,4,3,13,-2,-60,-11,-3
1584990413.0852313,-5,3,1,-10,-7,-12,-4,18
1584990413.0852313,-6,-2,-1,-1,0,4,2,-11
1584990413.1145406,17,0,-1,2,1,18,-3,-19
1584990413.1145406,-2,3,-4,3,-2,-32,-8,17
1584990413.1154563,-6,-2,-3,2,4,18,10,9
1584990413.1154563,-19,-9,-2,-3,1,5,-2,-14
1584990413.1216574,54,6,1,1,2,3,4,22
1584990413.1216574,-83,-12,-7,-8,3,41,-16,-36
1584990413.1227582,9,-2,2,18,17,-73,-53,30
1584990413.1227582,17,3,4,-12,-4,3,-1,-1
1584990413.144057,21,4,-4,0,0,39,22,55
1584990413.144057,-8,5,1,-2,-1,36,8,-83
1584990413.1453156,25,-3,-1,3,8,-4,4,6
1584990413.1453156,5,-5,-1,0,-6,-6,28,7
1584990413.1663597,-3,5,-3,-15,-2,31,36,-24
1584990413.1663597,-7,-1,-3,0,3,69,10,15
1584990413.167568,-10,-6,-2,1,-6,-24,26,-46
1584990413.167568,-5,4,6,0,28,65,-36,4
1584990413.1820185,5,4,1,10,-43,-11,-5,8
1584990413.1820185,-10,6,8,2,79,127,49,2
1584990413.1824777,8,4,2,29,121,88,-41,-14
1584990413.1824777,-27,-25,-13,-39,-93,-128,-88,-72
1584990413.2043407,24,5,8,-7,-128,-109,-8,56
1584990413.2043407,-2,-3,-6,2,-128,127,-31,-34
1584990413.2069306,2,12,3,8,72,88,-2,127
1584990413.2069306,54,20,19,-8,-47,-71,-70,-52
1584990413.226352,60,5,-6,28,127,110,-1,127
1584990413.226352,-19,6,11,-30,29,-88,-14,1
1584990413.2273002,-13,-7,-9,39,64,75,44,51
1584990413.2273002,29,24,20,18,46,127,7,80
1584990413.2412772,14,11,1,12,-16,-58,6,-4
1584990413.2412772,-65,-9,10,40,30,-10,-76,-34
1584990413.2431235,33,7,-3,22,127,127,108,39
1584990413.2431235,-7,-9,3,-128,44,71,-7,-72
1584990413.2638686,-19,3,-5,86,-128,-104,-5,-24
1584990413.2638686,-10,-12,-9,22,51,-41,66,11
1584990413.264828,12,-14,-3,-80,-8,-53,14,-8
1584990413.264828,10,-6,-14,-91,127,-2,-75,108
1584990413.286411,18,5,7,-33,-94,-70,-56,-34
1584990413.286411,-24,-4,-8,-2,3,58,17,11
1584990413.2873445,74,16,24,-27,-88,-10,27,-9
1584990413.2873445,-23,17,2,-128,-128,-61,53,89
1584990413.301324,-44,-16,-12,127,127,127,42,-20
1584990413.301324,7,-17,-2,3,-128,-128,-47,-9
1584990413.3022566,12,-5,-19,-54,-128,-21,-24,22
1584990413.3022566,23,8,10,-126,87,-67,45,62
1584990413.323796,-1,3,9,110,-23,-13,84,-128
1584990413.323796,-6,2,7,-85,-128,31,-13,37
1584990413.3247228,19,11,9,100,38,-93,-22,11
1584990413.3247228,3,4,2,-30,20,-26,65,29
1584990413.34632,18,12,15,52,127,96,0,23
1584990413.34632,7,-4,-11,-29,-128,-39,123,13
1584990413.3476534,-2,-3,-6,17,-128,-64,-91,0
1584990413.3476534,-6,-3,-4,-52,-20,-39,25,34
1584990413.3610501,24,-2,-11,22,-128,7,-3,-75
1584990413.3610501,66,-9,-14,-108,-58,100,-20,20
1584990413.369126,-128,-11,5,63,-38,59,17,-120
1584990413.369126,-62,-20,-30,0,-128,-26,-51,-52
1584990413.385172,68,8,-3,-47,127,-52,48,-41
1584990413.385172,34,10,15,-8,-86,-24,51,-7
1584990413.3869371,8,16,11,-50,-79,-128,-56,23
1584990413.3869371,9,15,13,28,7,127,16,28
1584990413.4063182,-12,3,2,-128,-128,40,21,-22
1584990413.4063182,-63,2,5,-6,22,36,65,9
1584990413.4075887,-1,-7,-2,104,-58,95,5,37
1584990413.4075887,0,3,-1,23,85,-1,-18,1
1584990413.4213164,-2,3,-8,117,-85,1,-27,68
1584990413.4213164,16,20,14,60,-128,-62,96,123
1584990413.4222817,-43,-14,7,-86,127,-10,-29,-107
1584990413.4222817,23,1,-2,-80,-114,-123,-75,39
1584990413.443781,-9,2,-27,-109,94,44,37,-17
1584990413.443781,5,8,-5,127,127,127,22,57
1584990413.4450843,3,-1,0,37,33,44,29,-35
1584990413.4450843,-5,-3,8,6,-128,-67,-21,16
1584990413.4663246,16,8,12,9,19,-3,-8,-17
1584990413.4663246,15,5,2,18,-12,37,-25,5
1584990413.4672396,-47,-8,-3,-34,26,8,35,-61
1584990413.4672396,23,5,3,-34,-23,-27,46,-26
1584990413.4813287,-3,1,-2,-37,-8,-128,-66,57
1584990413.4813287,-6,6,6,-10,-4,-9,-49,-40
1584990413.4823048,41,-2,-3,1,-2,-1,24,36
1584990413.4823048,-23,2,-1,10,38,44,12,43
1584990413.503956,-30,-26,-16,23,-1,-48,-58,-119
1584990413.503956,-13,2,-5,-4,-18,-72,-23,-15
1584990413.5053174,-4,-4,-2,-15,-8,-16,-31,-13
1584990413.5053174,21,4,3,-2,108,-4,5,31
1584990413.5262923,-10,-8,-6,-9,-21,8,14,-25
1584990413.5262923,2,3,-1,-26,-5,-3,8,6
1584990413.5276308,-8,-5,-3,-16,-17,-41,-16,-13
1584990413.5276308,-2,-4,-5,-17,127,-76,-21,-9
1584990413.5406063,2,1,3,7,55,-51,-37,5
1584990413.5406063,-2,2,0,0,1,-13,17,-2
1584990413.549146,1,1,2,21,-4,13,15,14
1584990413.549146,1,1,-3,-9,43,1,-12,-9
1584990413.563811,-9,-5,-6,-2,-7,0,17,-32
1584990413.563811,-3,6,7,8,25,-24,-5,1
1584990413.5646105,1,0,-1,0,-5,-2,13,20
1584990413.5646105,-1,-4,-2,2,1,-1,2,-10
1584990413.5863562,-1,-1,-3,-3,0,0,1,-3
1584990413.5863562,-1,2,2,6,-1,-6,-27,-3
1584990413.587611,0,0,3,2,-2,2,1,-1
1584990413.587611,-2,1,0,-5,3,-1,1,0
1584990413.6020803,-8,2,4,-2,-14,-19,-4,-9
1584990413.6020803,-1,-3,-3,-5,-16,5,-3,-2
1584990413.6090865,-7,-3,0,-4,-1,3,-2,-7
1584990413.6090865,5,2,1,-4,-14,37,12,1
1584990413.6237905,-5,-3,-7,-17,10,-11,1,-5
1584990413.6237905,7,6,6,-8,-1,36,2,3
1584990413.6250904,1,-3,0,50,11,4,10,8
1584990413.6250904,-2,-4,-4,-41,23,2,2,-11
1584990413.6463046,3,-2,-3,-2,6,-8,-3,-1
1584990413.6463046,-3,2,-1,-1,1,-10,-4,1
1584990413.6476235,-1,-1,1,-3,-1,1,3,4
1584990413.6476235,-1,1,2,2,-2,-1,-2,-4
1584990413.6695974,2,4,2,2,0,0,-1,0
1584990413.6695974,0,1,1,1,3,-1,-1,6
1584990413.6709929,5,-3,-2,-2,0,2,-2,0
1584990413.6709929,25,3,-1,-1,1,1,2,13
1584990413.6839855,-38,-4,-2,-1,-3,-1,-2,-9
1584990413.6839855,-66,-7,-2,1,-1,-1,-6,-31
1584990413.6852992,17,1,0,1,-3,-1,5,6
1584990413.6852992,18,-2,-1,-1,0,2,0,3
1584990413.7145116,16,2,-3,-1,0,0,2,5
1584990413.7145116,42,0,0,-1,1,1,6,19
1584990413.7153957,-28,-8,1,-1,1,3,-2,-18
1584990413.7153957,38,4,2,-3,0,0,-3,13
1584990413.729509,-12,-1,2,0,3,3,1,-15
1584990413.729509,-8,-16,-7,-4,1,-2,-5,4
1584990413.730368,32,31,5,4,-2,2,0,7
1584990413.730368,-20,3,5,2,-1,3,2,-9
1584990413.7450964,15,3,-3,0,-2,1,-3,7
1584990413.7450964,12,-4,-5,-3,-3,1,1,3
1584990413.7462893,9,-1,3,1,2,3,-1,3
1584990413.7462893,-4,-1,1,3,1,-1,1,6
1584990413.7663224,-2,0,2,1,1,-3,0,-10
1584990413.7663224,17,-1,-4,-2,-2,-1,2,19
1584990413.767204,12,-4,-5,-3,-1,-1,-1,0
1584990413.767204,-35,-5,0,-2,1,-5,-2,-9
1584990413.789508,10,-1,-5,-2,-3,-3,1,16
1584990413.789508,27,7,7,3,0,-4,1,8
1584990413.7908201,8,12,9,4,-1,1,-1,0
1584990413.7908201,-20,0,-3,0,-2,1,-5,-23
1584990413.803966,-64,-28,-8,-6,0,-2,-3,-8
1584990413.803966,62,11,0,-4,-3,-1,2,13
1584990413.8053436,29,1,4,-1,-5,1,-1,13
1584990413.8053436,15,1,1,-2,0,-1,2,-7
1584990413.8263297,15,3,-2,0,1,-1,0,7
1584990413.8263297,-14,-15,-4,-1,-6,-2,0,9
1584990413.8276572,21,13,3,0,0,-1,0,6
1584990413.8276572,5,8,7,2,-2,2,2,23
1584990413.8495226,-32,-12,-3,-4,-1,-5,-9,-38
1584990413.8495226,-15,-6,-5,1,2,-3,-5,1
1584990413.8504436,-7,-12,-4,-4,-1,-4,6,-24
1584990413.8504436,11,5,1,1,2,-2,-2,14
1584990413.8638144,22,5,8,1,-1,2,4,15
1584990413.8638144,-9,-6,-2,-1,-1,2,1,8
1584990413.8646526,-20,-19,-6,-2,2,-2,-5,-65
1584990413.8646526,-65,3,-6,-4,-3,-1,-2,33
1584990413.8863442,23,-6,-5,-4,-5,-4,-5,-23
1584990413.8863442,-41,-14,-3,0,3,4,1,7
1584990413.8876677,10,6,3,0,-1,2,2,9
1584990413.8876677,13,5,3,2,1,1,3,22
1584990413.909465,43,0,0,-1,2,4,9,27
1584990413.909465,-4,4,0,0,-1,-3,-7,1
1584990413.910814,18,2,2,-2,-1,-5,-7,-34
1584990413.910814,0,-6,-7,-2,-3,-4,-1,-4
1584990413.9237812,14,5,3,2,3,0,4,15
1584990413.9237812,-9,2,1,0,-1,1,-2,2
1584990413.9251578,20,-4,-2,-2,1,1,-2,9
1584990413.9251578,12,9,3,2,1,1,5,9
1584990413.9462774,-28,-3,-5,-6,1,-5,-6,21
1584990413.9462774,-25,-10,-3,1,-1,-2,-7,-61
1584990413.947096,-14,4,5,4,2,2,11,5
1584990413.947096,26,12,-1,3,2,3,9,36
1584990413.969589,23,-24,-7,-10,-11,-13,-26,-80
1584990413.969589,16,10,8,6,-2,-1,2,19
1584990413.9710267,-7,6,8,2,-1,1,1,10
1584990413.9710267,-60,-3,-2,0,1,1,3,-14
1584990413.9836516,11,-1,-4,-2,4,1,3,8
1584990413.9836516,8,-5,-3,0,-4,-1,-1,5
1584990413.9913247,5,-1,-2,1,-3,1,-5,2
1584990413.9913247,0,0,-2,-1,1,0,1,0
1584990414.0062938,24,0,-4,1,4,0,1,4
1584990414.0062938,-45,-8,-3,-1,0,0,-3,-8
1584990414.0075364,53,1,4,-3,0,1,6,23
1584990414.0075364,-48,-2,-3,1,0,0,-4,-25
1584990414.0294979,-6,-1,1,2,-2,1,-4,-4
1584990414.0294979,-71,-18,-1,-2,-3,-6,-15,-69
1584990414.0304027,72,8,1,3,3,1,6,28
1584990414.0304027,-3,5,-1,1,-1,3,1,7
1584990414.0437808,23,4,3,-1,-1,2,4,15
1584990414.0437808,-22,6,3,1,4,1,3,18
1584990414.0450983,36,-14,-10,-5,-5,-5,-3,23
1584990414.0450983,3,-26,-13,-4,-7,-5,-9,-17
1584990414.0663176,-15,8,8,2,-3,0,3,-7
1584990414.0663176,-23,13,11,3,0,2,1,6
1584990414.067271,-2,-2,0,1,0,1,1,3
1584990414.067271,3,0,-5,0,0,-1,-1,3
1584990414.0899212,-1,4,-3,0,0,1,-1,0
1584990414.0899212,16,-1,-1,1,0,0,3,17
1584990414.0912807,-31,-2,2,0,-2,0,-3,-21
1584990414.0912807,-1,1,-2,0,-1,0,-3,-7
1584990414.1038334,3,2,1,0,1,4,2,6
1584990414.1038334,20,0,1,1,-1,0,7,4
1584990414.1052177,31,1,2,0,4,-1,4,22
1584990414.1052177,-39,-2,-3,2,0,-2,1,-20
1584990414.126298,1,1,-3,0,0,1,4,19
1584990414.126298,-24,-6,-1,-2,1,-2,-5,-54
1584990414.1276345,90,10,3,3,2,3,9,46
1584990414.1276345,-99,-10,-6,-4,-1,-3,-9,0
1584990414.1494892,70,-1,-4,1,-5,-4,-8,-33
1584990414.1494892,-18,6,7,0,2,1,-3,-1
1584990414.1504574,-3,-2,0,4,2,-2,4,-3
1584990414.1504574,9,1,1,4,3,1,-3,11
1584990414.1638274,9,13,6,2,2,1,2,16
1584990414.1638274,8,-2,-4,0,-3,0,2,-6
1584990414.1647446,7,-6,-5,0,-2,-1,-4,-14
1584990414.1647446,-32,-5,-2,-1,1,1,-1,11
1584990414.2021234,-5,3,-3,0,-1,2,3,-1
1584990414.2021234,86,1,-2,-1,-1,0,-2,17
1584990414.2035244,-60,-15,-2,-5,-3,-5,-10,-41
1584990414.2035244,-33,5,1,2,-1,3,-3,-3
1584990414.2094843,17,0,-2,-3,0,-1,-3,-9
1584990414.2094843,23,1,1,-1,-1,-1,5,11
1584990414.2106354,17,-3,3,-1,1,-5,-3,-1
1584990414.2106354,-6,1,4,2,1,2,5,9
1584990414.22379,-13,1,0,3,-2,0,2,-12
1584990414.22379,18,-3,-1,0,1,0,0,26
1584990414.225071,-1,1,0,-2,-1,-3,-1,-4
1584990414.225071,5,1,-1,-2,-2,0,0,11
1584990414.2463186,18,0,1,2,-3,1,2,9
1584990414.2463186,-44,-4,-1,-3,-1,-3,-10,-24
1584990414.2476437,-41,-12,-5,-8,1,-4,-6,-6
1584990414.2476437,43,5,3,0,2,0,-2,25
1584990414.270158,19,10,2,2,0,-1,-2,13
1584990414.270158,-4,-5,-1,-1,-3,1,4,0
1584990414.271689,9,-4,-2,-4,0,-1,3,6
1584990414.271689,-6,-2,-7,-5,0,0,-1,0
1584990414.2839603,20,7,1,1,0,2,-2,3
1584990414.2839603,-11,-3,4,4,1,0,2,1
1584990414.2852385,60,8,3,1,0,5,10,25
1584990414.2852385,-128,-23,-5,-8,-3,-6,-9,-61
1584990414.3062663,-11,-6,-7,-7,-3,-9,-17,-11
1584990414.3062663,36,2,3,3,-1,2,-2,9
1584990414.30765,9,-1,0,2,-1,1,-3,6
1584990414.30765,17,4,1,-1,-1,0,5,17
1584990414.3294792,-26,-2,1,-1,-2,0,3,-28
1584990414.3294792,1,1,0,2,-1,0,1,11
1584990414.3303618,-38,-13,-4,-4,-5,-5,-7,-15
1584990414.3303618,5,6,2,3,-1,1,0,5
1584990414.3437607,37,5,-1,2,2,-2,-1,18
1584990414.3437607,-61,-9,-6,-4,-1,-4,-7,-14
1584990414.3450673,-12,-8,3,2,-2,-2,-10,-51
1584990414.3450673,25,9,4,4,1,-4,2,18
1584990414.3663015,27,2,-1,-2,1,3,3,18
1584990414.3663015,-36,-16,-4,-1,-2,-1,-7,-39
1584990414.3672092,-49,5,4,-1,-1,0,2,-4
1584990414.3672092,22,1,-4,-4,-3,-1,1,1
1584990414.3894932,4,1,-3,0,-2,0,1,-5
1584990414.3894932,1,1,1,-2,-3,2,2,11
1584990414.3908494,19,11,8,0,0,2,8,21
1584990414.3908494,-26,-12,-6,-6,-5,-7,-15,-12
1584990414.4039237,23,-2,-4,-3,-3,-5,0,16
1584990414.4039237,-14,-2,-5,-1,-2,-2,-9,-59
1584990414.4053385,0,-2,2,1,3,1,3,11
1584990414.4053385,-2,4,2,-3,1,-1,2,19
1584990414.4262888,0,4,0,4,3,2,5,-1
1584990414.4262888,-2,-7,-6,-3,-3,0,1,2
1584990414.4275947,-1,-3,2,-2,-2,-4,-2,9
1584990414.4275947,2,3,5,2,-1,2,0,0
1584990414.4494727,11,3,-3,2,1,2,-10,16
1584990414.4494727,10,0,-5,0,1,1,4,9
1584990414.4503772,-18,-7,-2,2,-1,-2,-3,-14
1584990414.4503772,6,2,3,1,-1,2,5,8
1584990414.472226,37,6,3,2,-5,4,7,24
1584990414.472226,9,-13,-5,-6,-5,-4,-11,-35
1584990414.4737875,-1,-3,1,-1,3,2,-5,0
1584990414.4737875,-36,-3,2,-1,1,0,0,-6
1584990414.4862697,13,9,4,2,-2,0,3,19
1584990414.4862697,10,-5,-3,-1,-2,0,-1,0
1584990414.487123,11,-1,2,3,0,3,0,7
1584990414.487123,3,2,3,0,-2,0,-2,5
1584990414.509499,17,4,2,3,-1,0,2,17
1584990414.509499,-8,-3,-2,-2,1,-2,-3,-31
1584990414.5108848,-4,-6,-8,-4,-3,0,8,-4
1584990414.5108848,-7,-2,-2,-1,-2,1,2,12
1584990414.5231588,32,7,8,2,0,-2,1,-5
1584990414.5231588,-34,13,12,6,4,0,-2,-12
1584990414.531328,9,-4,-5,-3,1,1,0,-4
1584990414.531328,13,-4,-4,-4,1,1,1,9
1584990414.5467532,-16,-9,-9,-5,-2,1,-4,2
1584990414.5467532,-33,-7,-3,-3,0,-1,-1,-14
1584990414.5480106,30,0,1,1,2,-2,1,12
1584990414.5480106,-18,-4,-2,-3,-3,-6,-8,-20
1584990414.5694928,40,1,0,0,-4,1,6,20
1584990414.5694928,-53,-12,-3,-5,-1,-5,-24,-82
1584990414.570818,4,3,0,0,2,2,2,17
1584990414.570818,13,2,1,1,-2,0,-3,12
1584990414.5919805,7,4,0,1,-3,1,2,3
1584990414.5919805,3,1,-1,0,-4,1,-8,11
1584990414.59327,-5,-3,1,0,-1,0,-5,7
1584990414.59327,18,1,-1,-5,-4,0,0,0
1584990414.6063058,-44,-1,-3,3,3,0,-4,-6
1584990414.6063058,3,-1,2,-3,2,-1,2,10
1584990414.6076803,12,3,2,-1,-2,-2,-2,-7
1584990414.6076803,-5,-7,-3,-3,0,-1,-4,-8
1584990414.6294963,-28,-6,-2,0,-2,-3,0,0
1584990414.6294963,0,6,3,4,-2,0,2,-5
1584990414.630392,7,-3,-6,1,2,-3,-1,6
1584990414.630392,3,-3,-7,1,2,0,1,-4
1584990414.6519585,-16,2,-1,2,-1,0,1,5
1584990414.6519585,12,-1,-1,-1,2,0,-2,-7
1584990414.6528072,59,3,0,1,2,3,1,41
1584990414.6528072,-73,-8,-2,1,1,-1,-3,-61
1584990414.666298,-10,0,-3,-1,0,-2,-5,-7
1584990414.666298,24,2,1,-1,-4,-8,-4,20
1584990414.6672122,12,2,2,2,4,6,4,0
1584990414.6672122,8,3,2,2,0,0,4,3
1584990414.6899035,0,1,-2,-4,0,-2,-7,-1
1584990414.6899035,-4,-2,-2,-2,1,-3,-1,-9
1584990414.6912494,4,-5,1,0,1,1,-10,9
1584990414.6912494,5,0,0,2,-5,-3,0,7
1584990414.7120318,-13,1,-4,1,0,2,0,-3
1584990414.7120318,24,1,-1,0,7,3,1,13
1584990414.7133474,-31,-12,2,-1,0,1,-6,-21
1584990414.7133474,6,1,2,3,-1,2,1,2
1584990414.7262585,0,4,6,-2,0,2,1,1
1584990414.7262585,-3,-2,-5,1,1,0,-3,4
1584990414.727526,0,0,0,-1,-3,0,0,-2
1584990414.727526,3,5,3,-3,-4,-6,0,8
1584990414.7494953,0,-3,-1,-1,-3,1,-1,-6
1584990414.7494953,-12,-4,-1,-1,-2,0,-1,-13
1584990414.7503424,14,-3,2,2,-1,2,2,13
1584990414.7503424,-4,-7,-6,-2,-3,-1,-7,-33
1584990414.7721071,-43,-2,-3,-4,-1,0,-7,-9
1584990414.7721071,3,-1,-2,-6,-6,-4,-1,2
1584990414.773779,-6,-4,-2,-3,-3,16,7,3
1584990414.773779,31,1,1,1,0,-23,-4,13
1584990414.7951202,-5,0,1,2,4,-2,-4,-5
1584990414.7951202,-17,0,2,1,1,23,1,-11
1584990414.796501,3,-2,1,-1,-17,-26,-9,0
1584990414.796501,6,4,-3,-7,26,19,-5,5
1584990414.8095267,-4,-1,-5,-6,-14,-27,-3,-13
1584990414.8095267,-4,1,1,-5,-10,15,-4,-12
1584990414.810879,-8,-7,-6,1,-4,-37,-3,-29
1584990414.810879,-8,0,1,-3,-3,7,6,11
1584990414.8319936,25,1,-11,-11,-8,-25,30,19
1584990414.8319936,0,-2,3,3,1,-11,-11,-2
1584990414.8328807,1,-5,-2,-15,7,47,20,-5
1584990414.8328807,2,0,-4,13,16,-5,9,-3
1584990414.8463168,-5,0,2,2,7,50,25,18
1584990414.8463168,-2,-3,-6,-23,-74,15,15,40
1584990414.8476694,12,4,7,26,107,47,-3,4
1584990414.8476694,-3,-10,-1,9,18,28,-32,7
1584990414.868924,1,2,0,-11,18,-128,-10,-9
1584990414.868924,-27,-1,3,5,25,60,0,54
1584990414.870362,42,-11,-1,4,-114,-3,-16,-96
1584990414.870362,-112,-11,-1,5,-52,73,-10,-50
1584990414.8919454,-13,-8,-17,-48,-25,-81,-5,-46
1584990414.8919454,39,17,17,54,111,-128,56,36
1584990414.8932998,-1,-7,-7,-10,-128,-128,16,40
1584990414.8932998,37,14,6,37,77,95,81,88
1584990414.906256,5,12,13,-58,-128,-110,-14,46
1584990414.906256,0,0,-22,24,127,-20,-12,-73
1584990414.907589,48,10,2,45,44,-128,-55,53
1584990414.907589,-3,6,14,-23,-128,94,25,37
1584990414.9289594,-12,-17,-21,7,127,-123,-32,33
1584990414.9289594,-38,-4,-4,-10,-128,-6,-14,-24
1584990414.929895,0,-9,9,-14,127,37,30,-11
1584990414.929895,66,5,2,15,-85,104,40,109
1584990414.951995,-32,10,-1,-29,-23,127,-57,-65
1584990414.951995,-3,-9,-3,-124,-128,127,20,-55
1584990414.9529462,-45,-13,-20,127,127,117,-25,7
1584990414.9529462,-82,-18,4,-19,-23,-66,10,-25
1584990414.9663591,25,15,7,14,-128,-60,-14,14
1584990414.9663591,-16,1,-19,-88,115,19,-9,1
1584990414.96726,4,-8,2,-56,-55,49,32,-43
1584990414.96726,18,17,10,66,106,-128,20,19
1584990414.9889176,-13,-14,-21,-45,54,38,-24,24
1584990414.9889176,-31,-5,2,11,-128,-74,-60,-94
1584990414.990369,5,6,10,-51,127,-115,-45,-81
1584990414.990369,-21,-21,-23,40,-128,-128,-114,-40
1584990415.0119247,-64,-33,-14,-4,127,-94,-107,-42
1584990415.0119247,50,21,10,-3,-41,-19,75,79
1584990415.0127249,13,18,22,92,-34,72,42,28
1584990415.0127249,-16,3,-5,-30,127,127,51,0
1584990415.027515,24,20,20,4,-128,-67,15,22
1584990415.027515,-14,5,0,13,122,-68,-4,-5
1584990415.0282462,13,-3,1,-8,5,16,19,50
1584990415.0282462,36,-6,-10,-33,-128,-29,33,-13
1584990415.048865,17,11,7,45,9,-13,-2,5
1584990415.048865,-128,-12,-11,-67,-10,-32,-25,-29
1584990415.0498486,9,-23,-16,0,-128,-128,-60,-79
1584990415.0498486,-9,-3,-9,-1,75,-61,-14,-15
1584990415.0721517,27,6,-2,25,127,106,62,27
1584990415.0721517,34,18,22,-16,-128,-17,-50,25
1584990415.0739453,9,15,19,114,-4,127,79,108
1584990415.0739453,-29,-5,-1,-68,-128,16,31,-128
1584990415.0862572,4,2,0,120,-128,-128,-97,-43
1584990415.0862572,6,-20,-19,-51,-128,-39,-18,-1
1584990415.0875118,5,3,7,24,-128,-9,2,5
1584990415.0875118,1,6,6,50,127,-108,-69,12
1584990415.108877,13,-2,0,-23,127,-63,90,48
1584990415.108877,-40,-25,-18,-60,-128,-13,-23,-89
1584990415.1102226,-9,-23,-14,-10,-128,-128,-71,-14
1584990415.1102226,-7,1,1,51,-25,52,44,-28
1584990415.131932,5,6,1,-6,-6,36,-25,19
1584990415.131932,2,8,9,-16,78,96,-47,-48
1584990415.1327958,-9,-6,-4,20,10,-17,4,33
1584990415.1327958,9,5,0,-15,-42,-128,-6,-7
1584990415.1462755,-15,5,6,-1,-4,45,41,15
1584990415.1462755,8,-8,-1,6,18,-63,74,-23
1584990415.1486204,36,11,6,24,127,127,82,20
1584990415.1486204,11,-11,-8,-4,93,12,4,-35
1584990415.1693864,-120,-3,3,32,-88,4,22,-8
1584990415.1693864,69,4,9,50,-26,-2,8,59
1584990415.1706223,-18,-16,-12,24,127,-128,-61,-16
1584990415.1706223,-61,-7,-7,-38,127,33,38,18
1584990415.1919615,30,4,4,127,-128,-32,-11,23
1584990415.1919615,40,5,9,-23,20,105,23,28
1584990415.1930375,-10,1,4,-33,-24,12,-46,24
1584990415.1930375,31,-2,-8,-20,-7,2,-9,6
1584990415.206273,-1,-7,-13,-25,34,14,-24,-38
1584990415.206273,14,5,2,2,-10,-39,28,22
1584990415.2073314,-23,-14,-5,-49,-29,-64,-61,-3
1584990415.2073314,-13,-5,-6,17,-8,-30,-24,-21
1584990415.2295272,6,-3,-7,-4,-12,-4,15,33
1584990415.2295272,-12,-3,0,-19,-28,-31,11,-50
1584990415.2304032,2,-3,-3,-9,6,-8,12,25
1584990415.2304032,-3,-3,-8,22,37,-41,1,1
1584990415.252063,0,4,-1,3,41,9,2,2
1584990415.252063,-5,-3,-5,3,-7,4,-8,-10
1584990415.2530289,-3,-6,-5,-11,-53,-128,-55,7
1584990415.2530289,13,3,2,-15,-16,-12,7,37
1584990415.266305,-8,-1,-4,31,3,-6,-7,-11
1584990415.266305,-3,5,5,-43,-26,0,19,1
1584990415.2672198,10,2,4,14,3,44,35,15
1584990415.2672198,11,5,5,12,-1,-16,-5,3
1584990415.2898865,-3,0,-1,15,-30,-10,-5,-6
1584990415.2898865,-17,-7,-4,-19,-39,1,-11,-5
1584990415.2912135,4,4,4,5,-24,-28,-6,-8
1584990415.2912135,-1,4,-4,-9,-8,-21,3,3
1584990415.3119452,9,1,-1,32,6,7,11,13
1584990415.3119452,-10,-11,-4,-10,-2,2,1,4
1584990415.3133223,-1,-5,-4,-6,-11,-5,-4,-7
1584990415.3133223,8,3,1,0,-7,-2,-1,2
1584990415.3262413,1,2,-1,0,1,-1,0,-2
1584990415.3262413,17,-2,-1,-2,-2,-2,-4,14
1584990415.327467,-13,-2,2,0,2,-1,-1,-6
1584990415.327467,13,2,0,-1,1,3,-2,-3
1584990415.349443,-53,-6,-6,-8,-3,-1,-2,-25
1584990415.349443,-16,1,1,2,3,2,-1,-4
1584990415.3503022,15,-8,-3,-3,-3,0,-2,10
1584990415.3503022,12,2,0,1,-2,-3,0,1
1584990415.371842,5,-1,2,-2,-8,-2,2,4
1584990415.371842,1,-2,-3,0,-6,1,-3,1
1584990415.3736587,-3,-2,-3,-4,-3,-1,-2,3
1584990415.3736587,-3,3,8,22,-8,-3,-5,-5
1584990415.3951375,1,-1,-8,-28,-1,3,2,5
1584990415.3951375,-1,-4,0,-13,0,3,1,1
1584990415.3964355,3,-4,-4,9,0,-2,1,6
1584990415.3964355,19,-3,0,-2,1,-2,2,9
1584990415.4108355,-40,-1,1,-6,-2,-3,-2,-14
1584990415.4108355,-9,3,8,-2,0,-1,-3,-1
1584990415.4120016,6,-3,4,1,0,-3,0,-3
1584990415.4120016,13,-1,-5,-2,0,2,1,2
1584990415.43192,18,-4,-4,0,-3,3,3,7
1584990415.43192,55,-7,-3,1,1,1,3,20
1584990415.4327562,-128,-3,-4,-1,-4,-6,-15,-61
1584990415.4327562,-14,4,11,0,0,-4,-4,-14
1584990415.4455934,41,-1,0,4,0,1,-1,0
1584990415.4455934,-16,6,1,3,3,6,8,7
1584990415.4537935,17,3,-3,2,2,0,1,8
1584990415.4537935,10,-18,-14,-4,-2,-2,1,9
1584990415.4689896,-3,-8,-6,-4,-3,-4,-4,-21
1584990415.4689896,-7,1,1,-3,-2,-1,0,-1
1584990415.4704237,-1,-5,-6,-4,2,2,0,1
1584990415.4704237,2,5,13,2,-4,0,3,5
1584990415.491936,1,14,12,5,2,3,3,5
1584990415.491936,0,-5,-4,-2,1,-3,-3,0
1584990415.493274,0,-14,-9,-3,0,1,-3,-1
1584990415.493274,-6,2,-3,-1,-2,2,1,-3
1584990415.5144675,1,-5,-3,-2,-2,2,2,2
1584990415.5144675,9,-6,-8,-3,-2,1,3,6
1584990415.5153744,26,7,5,2,2,-4,-3,25
1584990415.5153744,-56,17,21,1,-1,-2,-3,-21
1584990415.528974,50,2,-3,3,-2,-2,2,9
1584990415.528974,-23,7,-12,-10,-3,-2,-3,17
1584990415.5298507,30,-9,-5,1,2,-4,-4,-50
1584990415.5298507,-3,4,-6,-3,0,-4,0,26
1584990415.5519462,-49,-24,1,3,4,-1,-4,-6
1584990415.5519462,39,21,10,1,0,2,5,20
1584990415.552808,-7,10,6,-1,2,1,5,22
1584990415.552808,-9,-15,-11,-4,0,-2,-1,-18
1584990415.5744007,44,2,-14,-3,1,1,1,13
1584990415.5744007,-9,1,1,-2,0,-2,-2,-4
1584990415.575721,3,-5,1,1,3,-1,2,5
1584990415.575721,14,5,0,-1,1,-3,1,14
1584990415.5890775,7,0,1,0,-2,0,2,-4
1584990415.5890775,-18,-3,0,-1,-5,3,0,-3
1584990415.5903187,-12,-5,-3,-2,-1,1,1,-10
1584990415.5903187,34,-4,-3,0,-1,-1,2,17
1584990415.611948,48,26,9,2,2,1,3,29
1584990415.611948,-128,-2,4,0,-2,1,-9,-43
1584990415.6133142,4,-1,-3,1,0,5,10,52
1584990415.6133142,16,-9,-8,-2,-1,-3,-13,-82
1584990415.6344745,85,3,-1,0,0,1,7,55
1584990415.6344745,-128,-13,-1,-1,-1,-6,-12,-100
1584990415.6354012,104,0,-2,-1,-3,-4,1,11
1584990415.6354012,12,2,3,-3,0,4,4,-16
1584990415.6570985,-19,-3,1,8,3,-1,-6,24
1584990415.6570985,13,7,0,-1,0,-4,-2,-17
1584990415.658383,-30,-3,4,-2,-1,4,3,5
1584990415.658383,-5,4,-4,0,-1,0,6,7
1584990415.67194,-3,-5,-5,-1,-1,-5,-1,2
1584990415.67194,-8,-6,-1,-1,-2,-1,-2,0
1584990415.6732178,-4,-3,1,-1,-3,-4,-3,-2
1584990415.6732178,-3,8,0,0,-1,-1,-1,-1
1584990415.6944609,-4,-1,-3,0,4,1,1,-3
1584990415.6944609,-1,-4,2,1,1,-1,1,0
1584990415.6954112,-1,-3,-1,-2,2,0,0,-4
1584990415.6954112,-1,-2,-2,1,2,1,-1,-3
1584990415.7089505,0,4,0,2,-1,-1,1,0
1584990415.7089505,-3,-4,2,-2,3,0,-1,-12
1584990415.710342,-2,-4,-4,-2,3,2,-2,8
1584990415.710342,-1,3,-2,0,-1,0,-2,4
1584990415.7319572,-2,2,-4,-1,-2,-1,-4,-6
1584990415.7319572,3,2,1,0,3,-1,-3,8
1584990415.7328327,0,-7,-4,-2,2,0,0,-5
1584990415.7328327,-3,0,3,-2,-1,-1,2,8
1584990415.753551,29,-2,-2,2,-2,1,-2,-10
1584990415.753551,-36,-1,-3,-2,-2,0,-2,-7
1584990415.761255,5,-18,-11,-5,-2,-2,0,2
1584990415.761255,11,28,12,4,0,-3,-1,-9
1584990415.7689044,13,9,10,2,-1,2,4,7
1584990415.7689044,12,1,1,-2,-1,0,-10,1
1584990415.7702434,-5,-10,-6,1,-2,1,-3,5
1584990415.7702434,-13,-10,-6,-4,-2,-3,-7,-26
1584990415.7919538,12,0,0,0,1,-1,0,8
1584990415.7919538,20,-1,-1,-1,-2,0,0,5
1584990415.7932463,7,-3,1,2,0,2,3,4
1584990415.7932463,19,6,-2,0,1,-1,2,-8
1584990415.8144064,-45,-9,0,-1,-3,-3,-6,-11
1584990415.8144064,0,-4,2,-3,0,-2,0,2
1584990415.815201,8,-1,-2,2,0,1,2,1
1584990415.815201,3,-1,-3,-3,-1,-3,-1,2
1584990415.8290803,1,-1,-1,-5,-3,-1,-1,2
1584990415.8290803,7,-4,-1,-3,-4,1,0,2
1584990415.8299854,-37,-6,-2,-1,-3,3,0,-22
1584990415.8299854,3,5,4,1,1,0,1,-1
1584990415.8519676,4,1,3,1,-3,0,-2,2
1584990415.8519676,-1,-4,0,-1,0,0,2,0
1584990415.8528292,0,3,5,-5,-2,-1,1,-2
1584990415.8528292,13,1,1,-1,-1,0,0,8
1584990415.8744433,-33,-4,-4,0,1,-1,-5,-13
1584990415.8744433,0,-8,-2,-2,-3,-1,-2,-1
1584990415.8753753,6,6,-4,-1,1,0,-2,1
1584990415.8753753,1,-3,-4,-5,-1,0,0,0
1584990415.8889577,-2,-7,-3,0,-1,0,-2,0
1584990415.8889577,6,1,5,-3,3,-3,2,0
1584990415.8902957,-9,1,3,2,1,0,1,7
1584990415.8902957,-3,-2,0,1,-1,1,-1,-2
1584990415.9119625,-3,3,-1,-1,-1,-3,-2,-8
1584990415.9119625,-54,-9,-1,-1,-1,0,-6,-13
1584990415.9132543,21,-2,-1,1,-3,0,0,26
1584990415.9132543,-3,1,0,-2,-4,0,0,-18
1584990415.9344149,21,8,-1,-3,0,3,5,10
1584990415.9344149,-13,-5,5,0,0,1,-2,-3
1584990415.935388,25,7,-3,-1,2,-1,2,12
1584990415.935388,-22,-3,-4,-3,2,-1,-1,-20
1584990415.948975,6,0,2,-1,0,-1,0,-1
1584990415.948975,-2,0,4,-3,1,-1,-4,-5
1584990415.94992,7,-1,-4,-1,-1,-1,1,5
1584990415.94992,4,-5,-7,1,-1,0,3,5
1584990415.9721131,0,-3,-1,0,2,-1,1,-3
1584990415.9721131,1,1,5,-1,1,-3,3,3
1584990415.9733865,4,0,0,1,-1,-1,0,-6
1584990415.9733865,-12,-3,-2,2,1,-1,-1,8
1584990415.9949458,-6,-1,-3,-1,-2,-4,-4,-6
1584990415.9949458,-3,-3,-1,-1,-2,-3,-2,1
1584990415.996246,-2,0,0,-1,-1,2,0,0
1584990415.996246,-2,-3,-2,1,0,0,0,0
1584990416.0089657,-3,0,1,-1,-3,-1,-2,-2
1584990416.0089657,0,-2,-3,-4,0,-1,-1,0
1584990416.010352,3,-3,2,0,1,0,1,0
1584990416.010352,10,3,0,2,1,0,1,-1
1584990416.0319147,2,1,0,0,-2,0,2,-7
1584990416.0319147,-24,-9,-1,0,1,-3,-2,3
1584990416.0327919,-27,1,-2,-2,-3,-1,-5,-10
1584990416.0327919,-21,-3,-4,1,-1,-1,0,-17
1584990416.0544298,6,-2,-4,1,-2,-2,-3,3
1584990416.0544298,8,8,3,0,2,3,0,0
1584990416.055381,8,-3,-3,1,-3,-3,4,11
1584990416.055381,31,1,-7,-3,-2,-2,3,10
1584990416.0691082,-59,-6,-2,1,-1,-2,-3,-26
1584990416.0691082,-2,4,3,0,-2,1,-1,3
1584990416.0703356,7,1,-1,1,2,0,0,3
1584990416.0703356,6,1,-1,-2,0,-1,-1,2
1584990416.0919292,1,-3,-4,1,1,0,0,-1
1584990416.0919292,-1,0,5,-1,-2,-2,1,1
1584990416.0933275,15,0,-2,-1,2,-2,2,1
1584990416.0933275,-27,0,-6,0,-1,-2,2,-10
1584990416.1144614,13,1,-1,0,0,1,3,-5
1584990416.1144614,-22,-3,2,-1,-3,-2,-3,3
1584990416.1155028,1,-2,-2,-2,1,0,-1,-9
1584990416.1155028,4,-2,-4,-4,-1,-2,2,5
1584990416.128994,-3,-3,-8,-2,-4,1,-1,-1
1584990416.128994,2,6,6,0,-3,0,1,1
1584990416.1299653,5,-2,0,1,2,-3,3,1
1584990416.1299653,-1,-6,-5,-2,0,0,-1,0
1584990416.1519341,1,-2,0,-1,0,-2,0,-1
1584990416.1519341,8,-3,1,0,-2,1,2,3
1584990416.152809,-16,1,3,0,-4,2,-1,-1
1584990416.152809,-1,-1,1,-1,1,-3,-2,-1
1584990416.1744702,17,-6,-3,3,0,0,0,13
1584990416.1744702,-31,4,1,1,3,0,-1,-31
1584990416.1754434,6,6,3,-1,3,-1,1,3
1584990416.1754434,37,5,0,3,1,0,6,6
1584990416.1889024,-19,-6,-2,-1,-2,-2,-2,-6
1584990416.1889024,-15,-7,-2,-2,-3,-5,-4,-2
1584990416.1902866,16,2,-3,-1,-3,1,3,6
1584990416.1902866,2,2,1,1,0,0,2,6
1584990416.2123883,2,1,1,-1,-1,-2,-2,0
1584990416.2123883,2,-3,0,0,-1,-2,-1,-1
1584990416.2137585,2,-6,-3,0,1,0,0,-2
1584990416.2137585,0,-2,0,-1,-3,0,-1,-5
1584990416.2344217,-11,7,5,0,3,0,1,-1
1584990416.2344217,0,-3,-1,1,1,-1,-4,1
1584990416.2353263,0,-4,-4,-1,-1,0,-3,1
1584990416.2353263,1,3,4,2,-1,-1,3,0
1584990416.2489398,-1,4,3,1,0,-2,1,0
1584990416.2489398,2,-2,-6,-3,2,0,0,-4
1584990416.2498662,10,2,3,-1,4,-1,1,2
1584990416.2498662,-13,-5,-2,1,1,-2,-1,-3
1584990416.2720594,-8,0,1,-2,-1,-2,-1,-4
1584990416.2720594,-6,0,-1,1,-2,-2,-2,23
1584990416.273832,-11,-3,0,-1,-2,-1,1,8
1584990416.273832,24,-3,-4,0,1,3,1,-4
1584990416.2943654,6,3,4,0,1,0,0,2
1584990416.2943654,9,-1,3,-1,-4,2,1,-10
1584990416.2964418,-28,-7,-3,-3,1,-2,0,9
1584990416.2964418,-13,2,0,-3,-1,0,-3,-9
1584990416.3089602,5,-1,-1,-1,3,-1,1,1
1584990416.3089602,9,-4,0,-2,-2,0,1,5
1584990416.3103306,10,0,0,-1,-1,-2,1,3
1584990416.3103306,4,2,1,1,2,-4,-2,0
1584990416.3319561,-5,-1,1,-1,1,-1,2,-2
1584990416.3319561,1,-4,-2,-1,0,-1,1,2
1584990416.3328788,5,-1,0,0,-2,-2,0,6
1584990416.3328788,-5,-4,-3,2,-1,0,-5,-6
1584990416.353535,-2,0,2,0,-1,0,2,-1
1584990416.353535,15,-3,0,-2,-2,-4,2,5
1584990416.3612363,17,6,1,0,2,3,0,3
1584990416.3612363,-14,-4,-3,-2,-2,-2,-5,17
1584990416.368087,-59,-6,3,0,-3,-4,-7,-34
1584990416.368087,42,5,-1,-1,4,2,5,11
1584990416.3763037,9,-2,-4,0,3,0,2,24
1584990416.3763037,-15,5,2,-1,-3,-5,-4,-16
1584990416.3919692,25,2,0,0,1,1,1,9
1584990416.3919692,-14,-11,-6,-4,3,1,-2,6
1584990416.393674,17,7,3,2,-1,1,4,10
1584990416.393674,-3,-1,4,-1,-3,-4,-1,-1
1584990416.4143913,5,2,-4,-2,4,-2,0,1
1584990416.4143913,3,1,0,2,-2,0,-2,1
1584990416.4152935,3,-3,-1,0,-1,3,1,2
1584990416.4152935,-3,0,-3,0,-1,-4,0,-4
1584990416.4370878,-2,0,-1,-4,2,1,-1,5
1584990416.4370878,-2,-3,-1,0,1,-1,-5,-5
1584990416.4383888,0,3,-2,-1,-1,0,1,9
1584990416.4383888,6,1,0,-1,-1,-1,0,6
1584990416.4519453,4,3,2,0,2,-2,-5,-12
1584990416.4519453,48,3,1,0,-1,2,3,10
1584990416.4533536,-4,1,3,0,2,1,2,6
1584990416.4533536,-45,-11,-5,0,-5,-2,-2,-11
1584990416.474467,-7,-1,-1,2,-2,-1,-3,-6
1584990416.474467,48,9,5,4,1,-4,5,32
1584990416.4758227,7,10,7,1,0,2,10,25
1584990416.4758227,79,4,-6,4,0,14,4,45
1584990416.4881098,-108,-13,-4,-5,-3,-21,-14,-65
1584990416.4881098,72,9,2,0,0,-4,3,48
1584990416.4969475,-63,2,1,3,3,5,6,-6
1584990416.4969475,72,-6,-5,-2,-4,-1,-5,-19
1584990416.5119338,33,1,-1,-1,-2,3,-4,-1
1584990416.5119338,-43,5,1,2,16,53,11,0
1584990416.5135946,23,7,0,-4,3,-19,14,34
1584990416.5135946,-6,6,2,2,1,39,2,-3
1584990416.5344825,-3,-5,-2,-5,-10,-26,-3,5
1584990416.5344825,4,-3,-1,-3,1,-4,2,24
1584990416.5358381,-11,-5,-3,-6,-3,11,6,-55
1584990416.5358381,2,1,-1,0,0,4,-2,9
1584990416.548076,4,-1,2,2,4,11,18,19
1584990416.548076,6,5,1,0,-3,-6,1,28
1584990416.5569832,24,1,-5,-1,2,31,2,-5
1584990416.5569832,-21,-3,-3,0,1,48,2,-21
1584990416.5706208,-1,-1,4,0,-3,-72,-25,1
1584990416.5706208,6,1,-2,1,21,86,18,29
1584990416.5793414,-14,-6,-5,-7,-3,-12,20,-50
1584990416.5793414,6,1,3,2,-3,16,1,0
1584990416.59443,-29,-4,1,0,-5,-49,-4,3
1584990416.59443,3,2,1,-2,-2,-1,17,14
1584990416.5958395,-33,-6,-1,-12,-128,-47,-77,33
1584990416.5958395,34,-2,0,7,127,57,2,-48
1584990416.6169279,4,5,6,-3,-37,-128,-2,-4
1584990416.6169279,5,-8,0,24,4,-55,20,-6
1584990416.6183496,14,11,-2,-10,13,127,39,40
1584990416.6183496,-14,-6,-3,-7,-128,-128,-73,-78
1584990416.6305804,2,6,6,12,-29,110,12,-2
1584990416.6305804,-29,-12,2,6,43,17,22,-36
1584990416.6394143,10,10,15,-8,-53,117,-20,24
1584990416.6394143,-29,-21,-18,-20,-65,-128,-102,-49
1584990416.654412,22,8,6,12,-39,127,103,38
1584990416.654412,27,-5,-1,-8,32,-33,-13,-30
1584990416.6564143,100,19,11,-7,-8,1,-13,21
1584990416.6564143,-128,-34,-15,-44,-36,-51,-46,-106
1584990416.6769335,-4,6,-5,56,127,44,55,12
1584990416.6769335,54,8,4,22,-47,127,53,24
1584990416.6787071,38,24,15,20,1,57,77,12
1584990416.6787071,-32,-11,-10,-42,93,20,22,15
1584990416.6905508,30,-10,7,37,-60,-52,-1,26
1584990416.6905508,-1,-5,-5,13,127,-54,-43,-78
1584990416.6994348,-21,-6,1,-11,-53,-128,-9,-53
1584990416.6994348,16,23,16,2,-104,89,17,47
1584990416.7158566,18,-8,-36,127,127,28,-53,2
1584990416.7158566,-38,-8,1,-14,23,-114,-45,-64
1584990416.7172453,-35,-11,-15,2,127,127,30,51
1584990416.7172453,36,-3,-4,-10,-128,19,100,123
1584990416.7371218,20,8,-5,-69,-62,-48,-103,-76
1584990416.7371218,-8,-12,-4,-16,-81,127,23,48
1584990416.7389228,20,-3,-3,-10,10,8,-44,40
1584990416.7389228,-11,-4,-10,-57,33,8,25,25
1584990416.750555,-79,-26,-27,-9,119,-128,-128,-29
1584990416.750555,-27,-16,-15,23,127,-128,-128,-103
1584990416.7669196,36,-1,1,-9,-128,-103,-11,76
1584990416.7669196,28,20,1,-128,-128,-128,-51,-42
1584990416.7743518,-6,4,17,127,127,89,57,44
1584990416.7743518,30,8,7,-128,-128,-112,22,44
1584990416.7762935,27,2,-16,36,89,36,-20,58
1584990416.7762935,-21,-9,-3,-16,-33,-43,40,-26
1584990416.796904,-17,-5,2,86,-128,-24,-63,-44
1584990416.796904,10,11,10,22,127,-74,-16,100
1584990416.7982817,7,14,13,-78,-128,-50,-8,44
1584990416.7982817,-6,-18,-33,11,71,-19,-4,54
1584990416.8105361,66,7,11,37,-44,-59,7,9
1584990416.8105361,-37,-18,-10,61,-58,-52,44,-107
1584990416.8269134,-99,1,-1,-35,-10,127,29,-76
1584990416.8269134,18,4,-17,3,-112,61,-10,42
1584990416.8343942,28,-5,3,33,51,-96,-30,13
1584990416.8343942,16,6,1,-13,-29,38,48,18
1584990416.8358505,62,-2,-20,22,-128,-128,-128,-5
1584990416.8358505,-8,0,7,21,9,-128,46,3
1584990416.8568995,-43,3,7,17,127,-31,18,77
1584990416.8568995,15,2,2,-88,-15,-38,96,-81
1584990416.858781,15,8,5,25,127,-21,-96,-60
1584990416.858781,24,1,-12,-36,-88,-13,97,66
1584990416.8707557,14,3,1,-16,75,-128,-128,-12
1584990416.8707557,-38,-9,-3,-128,15,-12,-73,-1
1584990416.87948,27,13,-3,69,-62,-8,66,28
1584990416.87948,22,11,20,-18,-38,-107,-80,25
1584990416.894389,88,7,2,10,-52,5,20,13
1584990416.894389,-98,11,20,8,-31,-60,-19,31
1584990416.896454,-51,-7,-8,-81,8,58,16,-19
1584990416.896454,33,12,0,-60,-76,48,-61,34
1584990416.9168866,71,7,6,-20,-91,36,36,99
1584990416.9168866,1,-7,-14,-36,40,-4,4,6
1584990416.9184654,19,-4,-1,-67,-26,-128,-68,-33
1584990416.9184654,-56,-14,-27,-60,-128,-128,-102,-3
1584990416.9305463,0,-6,2,-12,-128,127,2,-16
1584990416.9305463,13,5,-10,-20,127,108,13,41
1584990416.9393702,-4,-15,0,42,-4,32,91,-58
1584990416.9393702,-2,2,-17,-91,113,-70,-37,-40
1584990416.9544227,-11,-4,1,-10,-82,-74,12,-3
1584990416.9544227,3,7,1,25,-8,-10,24,42
1584990416.9558685,-15,-10,-5,78,78,-128,23,-6
1584990416.9558685,32,12,6,-4,78,14,-15,94
1584990416.976934,-29,-9,-6,18,24,-49,29,-48
1584990416.976934,11,5,1,23,-99,72,-90,35
1584990416.9786744,14,8,-3,-12,-128,-96,-18,64
1584990416.9786744,-2,3,0,11,127,127,76,0
1584990416.9905667,8,1,16,80,8,5,9,18
1584990416.9905667,45,-4,-10,21,127,65,28,8
1584990416.9994302,43,18,4,-56,48,127,55,63
1584990416.9994302,-128,-30,-9,-7,-28,-9,-41,-109
1584990417.0144217,82,9,1,-46,-3,-37,2,47
1584990417.0144217,-45,-9,4,10,-48,-128,-33,-42
1584990417.0165389,49,14,4,-26,15,96,38,29
1584990417.0165389,-25,2,0,-35,-99,-69,-36,-122
1584990417.0370831,58,9,9,27,20,-18,-11,18
1584990417.0370831,-67,-10,-5,-13,-83,4,-2,8
1584990417.0388584,15,-5,-7,0,-6,-82,-69,-16
1584990417.0388584,3,-14,-12,125,21,-40,-29,-42
1584990417.050487,19,3,2,-15,-128,-43,3,34
1584990417.050487,23,1,-1,-38,52,127,-5,81
1584990417.0593636,-3,0,-16,-10,-29,16,52,2
1584990417.0593636,-6,-3,2,-29,-13,-30,-85,-31
1584990417.0743473,-22,-10,-9,3,-26,31,-4,-44
1584990417.0743473,-7,4,2,-1,-18,-11,9,-24
1584990417.0757813,4,3,6,27,-80,-38,-74,29
1584990417.0757813,10,10,4,-3,47,11,13,9
1584990417.0969398,-7,-3,0,-4,-20,83,-42,-27
1584990417.0969398,-7,-2,4,8,-14,15,51,-16
1584990417.0987573,5,6,3,4,1,24,-18,18
1584990417.0987573,-17,-2,3,-14,-24,-11,-11,-37
1584990417.1105623,1,-2,-1,24,24,-68,-20,8
1584990417.1105623,0,-3,0,11,-4,10,-15,-11
1584990417.1193924,-11,-3,-3,-9,-11,3,7,-4
1584990417.1193924,13,7,4,-13,5,-4,1,18
1584990417.1344,1,0,7,-15,-8,-3,5,-18
1584990417.1344,7,-2,-1,29,14,-1,-2,-4
1584990417.1366832,30,0,2,2,2,-1,1,10
1584990417.1366832,-57,-5,-5,-21,-128,-10,1,-2
1584990417.157131,10,-7,-1,-5,-54,-9,2,-3
1584990417.157131,12,-3,-4,-9,-7,7,8,13
1584990417.1599152,6,3,0,1,10,74,4,0
1584990417.1599152,7,5,-1,-8,-2,-6,11,12
1584990417.1707118,-2,-3,0,-5,-6,18,1,-3
1584990417.1707118,-8,-3,-3,-1,-1,-6,-10,-20
1584990417.1793506,0,1,0,0,-1,1,0,0
1584990417.1793506,2,1,-1,2,-4,-3,0,2
1584990417.1943965,-9,-4,0,-3,-3,-2,-5,-12
1584990417.1943965,0,-1,-2,0,2,1,1,-7
1584990417.1960263,-3,-2,-2,2,1,1,1,-1
1584990417.1960263,-2,4,3,-2,-5,2,-2,0
1584990417.2168868,1,-2,3,-4,3,0,2,6
1584990417.2168868,1,-1,-5,2,5,-2,1,2
1584990417.2184935,3,1,-2,0,0,0,-1,-1
1584990417.2184935,-3,-1,-4,-12,-2,0,1,-1
1584990417.2304857,0,1,0,36,0,1,1,-1
1584990417.2304857,-1,0,0,27,-7,-1,0,1
1584990417.2406077,0,1,0,-29,2,-2,-1,3
1584990417.2406077,2,1,-1,-5,-3,0,-4,0
1584990417.2544167,-5,-3,-5,-2,-5,-3,-1,-2
1584990417.2544167,0,-2,-3,-2,-1,-1,-1,1
1584990417.2558064,3,-3,-4,-3,-5,-4,-3,-1
1584990417.2558064,28,6,-4,0,0,3,4,7
1584990417.2781882,-19,12,26,8,2,-5,1,-4
1584990417.2781882,-43,2,6,2,-2,0,-4,-14
1584990417.2803319,8,-6,-19,-5,-2,-3,1,3
1584990417.2803319,17,-14,-16,-7,1,3,2,5
1584990417.290509,17,3,2,0,-2,0,-1,9
1584990417.290509,-30,9,1,-1,0,-1,-4,-23
1584990417.299377,10,1,1,-2,-1,0,-3,12
1584990417.299377,13,6,0,0,2,1,1,3
1584990417.3219163,11,-2,-1,0,2,0,2,21
1584990417.3219163,6,-4,1,-2,4,0,-2,-12
1584990417.3236165,-67,-6,-4,-1,-2,-2,-3,-23
1584990417.3236165,20,4,1,-1,1,-2,2,5
1584990417.3368607,16,-1,-1,-5,-3,0,1,15
1584990417.3368607,-1,-1,-2,2,-1,0,1,-8
1584990417.3383212,40,1,-4,0,0,-1,1,17
1584990417.3383212,25,-5,6,5,0,2,8,35
1584990417.3505425,-62,20,6,-3,-2,-4,-13,-73
1584990417.3505425,8,-14,-11,-5,-1,-6,-8,-14
1584990417.3593693,57,10,1,3,0,1,4,26
1584990417.3593693,28,3,-1,1,0,2,7,26
1584990417.3744218,-7,-4,9,-1,-3,0,-1,-2
1584990417.3744218,11,5,7,9,-1,2,0,12
1584990417.3766468,-2,1,-4,-2,-3,-3,0,4
1584990417.3766468,-8,-7,6,1,-1,1,3,5
1584990417.3969338,-13,1,0,1,2,3,-2,0
1584990417.3969338,-20,-3,-4,0,0,-1,-2,1
1584990417.3987303,4,-19,-9,-2,-3,-1,-2,-1
1584990417.3987303,4,17,6,-1,0,-2,-3,1
1584990417.4105577,-1,0,0,-2,0,2,2,-5
1584990417.4105577,-6,-10,-9,-4,3,-2,-3,-24
1584990417.419399,13,-5,-8,-2,3,3,5,18
1584990417.419399,35,18,3,1,1,0,2,12
1584990417.434404,-20,-2,7,-5,-5,-6,-8,-7
1584990417.434404,-23,-4,3,-1,-1,-3,-1,-29
1584990417.4358501,-37,-11,-8,2,-1,-1,-7,-80
1584990417.4358501,27,1,-5,-3,-3,-1,2,41
1584990417.4571185,38,9,6,3,1,2,5,7
1584990417.4571185,20,-4,1,2,-2,-2,0,25
1584990417.4588764,-120,-15,-5,-2,-5,-5,-9,-51
1584990417.4588764,-5,5,-1,2,1,-1,3,-6
1584990417.4707277,2,-6,1,-6,-3,-2,0,-9
1584990417.4707277,44,15,7,2,-1,2,-1,29
1584990417.4794254,-1,2,-1,0,3,2,4,20
1584990417.4794254,-26,-1,3,3,0,2,2,-11
1584990417.4930634,38,-3,-5,-2,0,-5,-3,7
1584990417.4930634,14,-7,-8,-9,-5,1,-1,11
1584990417.5019617,-53,2,1,2,-3,-2,-1,-1
1584990417.5019617,18,-1,2,1,2,-2,-4,-13
1584990417.5168772,40,9,9,1,0,0,1,49
1584990417.5168772,10,-11,-9,-2,0,1,3,-8
1584990417.5182848,-54,2,-2,2,2,4,4,-8
1584990417.5182848,51,-5,-2,-2,-5,-4,-4,10
1584990417.5305326,12,0,0,-1,0,4,3,2
1584990417.5305326,41,-11,-9,-6,-7,-7,-11,-8
1584990417.5394728,-67,-3,-1,-1,0,1,-4,-51
1584990417.5394728,9,7,-1,-2,0,0,7,17
1584990417.5530133,10,5,5,2,1,9,5,15
1584990417.5530133,5,2,6,2,1,1,2,9
1584990417.5619118,0,5,-1,4,3,-1,1,-3
1584990417.5619118,-1,-5,-7,0,-2,-1,-1,4
1584990417.5768087,0,1,3,1,-2,-3,-5,-5
1584990417.5768087,2,-3,3,-3,-2,2,-4,-3
1584990417.5782485,-1,1,-1,0,1,1,0,-2
1584990417.5782485,0,-2,-4,-1,-1,-3,2,-3
1584990417.5994015,43,1,-3,-3,1,2,0,10
1584990417.5994015,-29,-12,-4,-3,-1,1,-2,6
1584990417.6011617,-25,-2,0,-2,-3,-3,-7,-13
1584990417.6011617,24,5,-3,1,0,-1,3,5
1584990417.6143785,-5,1,0,-4,-2,-4,-1,3
1584990417.6143785,-31,4,2,4,1,2,6,6
1584990417.6163912,58,3,2,2,6,4,2,15
1584990417.6163912,-62,-12,0,5,0,-1,-7,-39
1584990417.6370466,-3,-3,2,-2,1,-3,-9,-11
1584990417.6370466,31,10,6,1,2,1,2,13
1584990417.6387627,7,5,-4,2,2,5,2,12
1584990417.6387627,-2,-1,-2,1,1,0,0,5
1584990417.659432,-3,-11,-7,-2,-2,1,-2,6
1584990417.659432,-4,2,1,-1,1,0,-1,-1
1584990417.6612434,-4,2,4,0,-3,-3,1,-1
1584990417.6612434,-1,-4,-1,-1,-3,1,1,1
1584990417.6744153,-3,-1,-1,2,-1,-1,-3,-1
1584990417.6744153,-2,3,2,0,0,0,-2,-4
1584990417.6758153,-4,-5,-5,1,-1,0,-4,-6
1584990417.6758153,3,-3,-1,-3,-4,-2,2,2
1584990417.6969247,3,1,3,1,0,-1,-4,1
1584990417.6969247,-4,-3,-4,1,3,1,-2,-2
1584990417.6986067,9,-2,-4,-1,-2,-1,0,7
1584990417.6986067,-25,9,10,3,0,1,-7,-18
1584990417.7194128,14,-3,-5,2,1,4,2,10
1584990417.7194128,2,6,0,-2,2,0,7,30
1584990417.7208312,9,-5,-3,0,-6,-5,-9,-43
1584990417.7208312,29,-1,-7,0,-2,-2,2,15
1584990417.733484,33,0,9,2,-2,1,-1,1
1584990417.733484,-4,0,5,-2,4,2,0,7
1584990417.7419503,-9,0,-5,-4,3,2,2,-16
1584990417.7419503,2,2,-5,1,3,5,2,29
1584990417.7570257,12,-3,4,2,0,1,2,-9
1584990417.7570257,-21,-3,-7,-3,-2,-2,-3,-4
1584990417.7587395,6,-1,-1,2,2,0,0,4
1584990417.7587395,2,-7,-4,0,-2,0,1,2
1584990417.7793682,6,-2,5,3,3,1,-1,4
1584990417.7793682,-4,10,2,2,-3,1,3,6
1584990417.7811093,-2,-1,-3,-1,-1,-1,-1,-9
1584990417.7811093,0,-2,-4,-1,2,-1,-3,-2
1584990417.7934852,-1,-4,-1,1,0,-2,0,0
1584990417.7934852,25,-2,0,2,-1,0,0,6
1584990417.808026,-33,1,5,1,-3,-3,-3,-2
1584990417.808026,16,-2,-4,-3,-3,-4,-3,7
1584990417.8168433,-34,-8,-6,-3,-3,1,-2,-22
1584990417.8168433,1,-8,-4,-1,-3,-2,-3,21
1584990417.8182585,30,11,5,0,0,-4,0,2
1584990417.8182585,-49,-5,2,-1,0,2,2,-15
1584990417.8394878,-2,-9,-4,-6,0,-3,-6,-32
1584990417.8394878,0,3,-1,2,1,1,3,9
1584990417.8412511,19,2,0,-1,2,1,-1,-3
1584990417.8412511,16,4,2,0,-1,2,2,12
1584990417.8536901,-47,-11,-3,0,-4,-1,-5,2
1584990417.8536901,5,3,2,2,0,-1,2,9
1584990417.8605006,-2,5,7,-1,0,1,2,7
1584990417.8605006,13,-1,-5,-2,2,-1,1,1
1584990417.8773525,3,-7,-5,-6,0,0,0,5
1584990417.8773525,6,3,2,2,-2,0,1,3
1584990417.8793128,-2,3,0,0,-3,-1,0,0
1584990417.8793128,0,-1,-3,-2,-1,0,0,-3
1584990417.8993874,-3,-2,-4,1,0,-2,0,-3
1584990417.8993874,0,-1,-1,1,2,-1,1,1
1584990417.9011133,1,-4,-3,-1,0,-1,0,4
1584990417.9011133,-1,-2,-1,0,0,-1,-2,-13
1584990417.9130166,5,3,4,1,0,0,-1,8
1584990417.9130166,14,-1,-3,0,1,-1,0,10
1584990417.9219303,-20,-1,0,-4,1,-2,-3,-28
1584990417.9219303,-4,-1,-1,-1,-1,-1,-3,-1
1584990417.9371169,7,1,0,0,1,-1,0,-1
1584990417.9371169,2,0,0,1,0,0,0,8
1584990417.9388053,-20,-1,-6,-3,0,-1,-1,6
1584990417.9388053,-18,-9,-3,-3,0,-1,-3,-12
1584990417.9596393,13,7,6,-1,-2,-1,1,5
1584990417.9596393,26,-3,-5,-4,1,0,2,27
1584990417.9614494,-77,-14,-6,-5,-4,-2,-4,-70
1584990417.9614494,8,11,11,3,0,1,-1,8
1584990417.9730468,-3,2,1,-2,2,-2,0,3
1584990417.9730468,4,-5,-3,-1,0,0,0,3
1584990417.9819458,4,1,-4,-1,-1,-1,0,4
1584990417.9819458,7,-3,-3,-1,-1,-1,0,3
1584990417.9968789,2,-3,-1,0,1,1,-1,7
1584990417.9968789,9,2,0,0,0,-2,-1,-5
1584990417.9985583,-8,2,2,1,0,-1,-2,-7
1584990417.9985583,12,5,6,-1,1,0,4,3
1584990418.0193958,-2,-7,-3,-6,-1,2,1,-6
1584990418.0193958,-18,3,-2,-2,-1,-3,-2,-7
1584990418.020785,-1,1,-4,-1,-5,-2,0,-2
1584990418.020785,28,-9,-1,-4,-4,-2,-2,6
1584990418.0419385,20,5,2,1,1,4,4,17
1584990418.0419385,-59,-10,-2,-2,-1,1,-2,-24
1584990418.0439672,3,9,0,0,-1,-4,2,6
1584990418.0439672,16,-4,-4,-2,1,2,2,6
1584990418.0571234,13,1,2,0,-2,3,0,4
1584990418.0571234,-3,-2,1,1,2,0,-3,2
1584990418.0589478,-9,2,-1,-3,-1,0,0,-5
1584990418.0589478,-2,-5,1,4,-4,0,-4,-12
1584990418.0793881,0,-7,-2,-4,-3,-2,-5,6
1584990418.0793881,-12,-4,-3,-1,-1,-2,-1,-2
1584990418.0812745,-1,11,9,4,1,-3,2,10
1584990418.0812745,-5,-4,1,-3,2,3,1,-18
1584990418.0930235,10,-4,-4,-1,1,-1,0,-1
1584990418.0930235,24,2,-5,1,0,0,1,25
1584990418.1018412,-38,-5,-3,-5,-6,-6,-9,-37
1584990418.1018412,5,1,2,2,2,-4,0,7
1584990418.11686,11,-1,1,-1,-1,1,3,4
1584990418.11686,8,-3,-3,-1,1,-3,-1,9
1584990418.1182752,6,1,-3,-1,-3,-2,-1,1
1584990418.1182752,2,1,-1,-2,0,0,2,2
1584990418.1397512,-1,0,-2,-1,-2,0,0,4
1584990418.1397512,-1,-1,-2,-5,-3,-3,3,5
1584990418.141396,-4,3,7,4,-3,1,-5,-16
1584990418.141396,-69,-7,-2,0,2,-1,-4,-12
1584990418.1535087,30,-5,-1,-4,1,0,3,10
1584990418.1535087,-29,3,1,1,1,0,1,-4
1584990418.161925,3,0,4,-1,-2,-1,-2,-18
1584990418.161925,-13,-1,-2,-3,-5,-1,-2,9
1584990418.1768873,2,-3,-6,-2,0,0,-3,-8
1584990418.1768873,8,2,-1,0,0,0,1,7
1584990418.1786182,10,0,-5,-1,1,-1,0,4
1584990418.1786182,12,2,4,0,0,-1,-1,6
1584990418.1993876,-6,-3,-2,-5,-2,1,1,-2
1584990418.1993876,5,-2,-2,-2,-1,-1,-4,-2
1584990418.2011626,7,-2,-2,-1,-1,-2,0,-4
1584990418.2011626,-3,2,0,-1,1,3,-2,1
1584990418.2130234,18,-1,1,-4,2,4,-1,3
1584990418.2130234,3,2,-4,3,-3,2,4,8
1584990418.2218783,-39,-7,-4,-2,-1,-3,-8,-17
1584990418.2218783,8,3,3,-3,0,0,-1,4
1584990418.2370558,14,-6,-4,-1,3,-3,-1,5
1584990418.2370558,15,-1,6,-1,1,1,0,-1
1584990418.238775,-41,5,5,-1,0,0,-3,-14
1584990418.238775,0,-5,-5,-3,-4,-3,-2,4
1584990418.2594614,14,-5,-2,3,-1,0,3,14
1584990418.2594614,-2,5,5,-6,-2,0,-4,-4
1584990418.261239,3,1,2,1,0,-2,-1,7
1584990418.261239,-22,-7,-5,-3,3,2,-1,-12
1584990418.273045,24,-4,1,1,1,-1,-2,5
1584990418.273045,3,-1,-7,-2,-1,-2,-1,-10
1584990418.281908,-14,-1,-5,-2,-4,-1,0,-2
1584990418.281908,7,3,5,-1,0,-1,0,0
1584990418.296881,5,-1,4,1,2,0,2,4
1584990418.296881,2,2,1,-1,0,1,1,-5
1584990418.2985857,4,0,-1,-4,1,-1,-1,2
1584990418.2985857,0,1,-2,-1,-3,-1,1,-1
1584990418.319403,-1,-10,-3,-1,2,0,-3,4
1584990418.319403,11,5,3,-1,0,-1,1,3
1584990418.3207893,-16,0,2,0,-1,-1,-6,-4
1584990418.3207893,-4,0,-2,-3,2,-3,2,-3
1584990418.3330534,5,-2,-1,2,-2,2,1,2
1584990418.3330534,-2,-3,-5,-1,-1,-1,-2,1
1584990418.341927,-14,-5,-4,-3,-4,-2,1,-4
1584990418.341927,30,-7,-3,1,2,1,-1,23
1584990418.3571146,-97,-1,12,1,0,-2,-9,-62
1584990418.3571146,5,-2,-4,-3,2,1,1,5
1584990418.3588498,15,2,1,0,-1,0,1,8
1584990418.3588498,-7,-2,-1,1,0,-1,2,4
1584990418.3794992,1,2,-1,2,1,-2,4,2
1584990418.3794992,2,1,-1,-2,-1,-1,1,2
1584990418.3812406,-3,4,1,-1,-1,-2,0,6
1584990418.3812406,7,0,1,1,-1,0,-1,-1
1584990418.3930488,0,-7,-4,-3,-1,-1,-1,-4
1584990418.3930488,-2,0,-4,-1,-1,-2,0,1
1584990418.4079683,-1,3,13,2,-1,-3,-1,-5
1584990418.4079683,0,-5,0,-2,1,-4,-1,-2
1584990418.4168477,1,-3,-5,0,-3,-2,0,1
1584990418.4168477,-3,1,-5,-1,-3,2,0,-1
1584990418.4183064,0,-4,-3,0,-1,-1,-1,-4
1584990418.4183064,3,-4,2,0,0,-1,0,-2
1584990418.4393523,-2,7,6,0,-1,3,0,-1
1584990418.4393523,-2,-4,-5,-1,3,-1,-1,-3
1584990418.4408834,-4,-3,-3,-2,-1,0,0,-1
1584990418.4408834,3,-1,-2,-2,2,-13,-3,-1
1584990418.4529843,3,-2,4,0,2,4,6,4
1584990418.4529843,-2,5,2,4,-2,-3,1,2
1584990418.461861,-2,-1,-2,2,-3,7,3,-3
1584990418.461861,0,-3,1,-3,-1,-1,-2,-8
1584990418.4770985,-2,-3,-4,-5,6,-4,-5,-1
1584990418.4770985,-3,1,-3,-1,2,1,-1,-1
1584990418.4788282,22,1,2,3,0,-3,1,14
1584990418.4788282,-50,-9,2,-1,0,-1,-4,-29
1584990418.4993591,-3,-3,-2,1,-4,16,1,-16
1584990418.4993591,17,3,3,-2,-1,0,-6,2
1584990418.501106,1,2,0,-4,-5,-39,-4,8
1584990418.501106,10,1,-1,-1,2,-8,0,9
1584990418.5219042,-38,4,3,-1,8,42,8,7
1584990418.5219042,17,1,-4,-1,-10,-10,-3,-1
1584990418.5236282,10,3,2,0,0,-4,-8,7
1584990418.5236282,-7,-4,0,7,17,-27,-20,-29
1584990418.5368557,-5,-6,-11,-12,-4,65,26,3
1584990418.5368557,-2,-3,3,4,-1,-41,-11,-6
1584990418.5382533,3,2,-3,-1,-15,0,-3,13
1584990418.5382533,-5,-4,-2,0,28,41,7,-4
1584990418.5594373,3,4,8,2,-76,18,-15,17
1584990418.5594373,4,4,-2,7,61,-122,-28,-4
1584990418.5612235,3,0,0,-6,-31,1,38,33
1584990418.5612235,-19,-9,-3,6,37,127,-12,-71
1584990418.5818655,7,-4,0,1,10,-6,-17,18
1584990418.5818655,11,3,1,-7,-122,14,-1,9
1584990418.5839846,-7,8,-2,3,-91,-33,17,38
1584990418.5839846,-15,-2,1,10,127,-93,-20,18
1584990418.595766,23,-3,-6,-2,127,127,70,23
1584990418.595766,4,-4,2,-14,-90,-97,27,39
1584990418.6043863,60,27,2,-13,-128,10,1,56
1584990418.6043863,-96,-9,-9,-30,127,114,22,-58
1584990418.6193523,24,1,4,2,-128,127,-78,16
1584990418.6193523,35,11,7,46,127,127,76,47
1584990418.6207888,11,4,21,21,-128,-39,18,26
1584990418.6207888,-3,-3,-7,-23,63,-128,-53,-20
1584990418.6419094,-1,-4,-23,-20,-128,127,34,2
1584990418.6419094,10,12,9,9,127,101,35,12
1584990418.644018,-40,-14,-32,-63,-128,-128,-50,-39
1584990418.644018,40,16,35,127,127,38,39,39
1584990418.655746,33,-15,-20,-128,-50,-117,-63,-17
1584990418.655746,-2,19,30,-110,127,127,-18,12
1584990418.6643279,-26,4,15,127,54,127,17,101
1584990418.6643279,14,-2,11,127,-128,-1,74,27
1584990418.6793363,96,-16,-11,-128,-128,-128,41,14
1584990418.6793363,112,19,4,-61,126,66,-47,107
1584990418.6810892,-117,-16,0,20,127,77,-122,38
1584990418.6810892,-84,-7,0,13,47,39,-26,-84
1584990418.7016573,93,17,4,-36,-22,29,76,127
1584990418.7016573,51,23,20,66,127,-15,-8,-55
1584990418.7079952,-27,-9,-14,-57,-43,-128,-19,-104
1584990418.7079952,22,22,19,7,127,36,55,52
1584990418.7157135,-22,-16,0,109,127,47,48,8
1584990418.7157135,26,12,11,-128,-128,109,62,65
1584990418.7243848,-31,-25,-40,-58,-128,-108,-45,-60
1584990418.7243848,-16,-3,0,127,-128,108,15,-53
1584990418.7406256,56,3,-5,73,-128,-65,-38,21
1584990418.7406256,8,7,-12,127,-128,22,103,-7
1584990418.7420998,-28,2,10,-93,65,83,64,59
1584990418.7420998,49,16,4,-67,-128,109,-19,1
1584990418.7616804,10,-6,-1,106,-14,37,22,20
1584990418.7616804,6,7,0,61,71,-112,-13,-19
1584990418.767975,9,3,9,-45,115,-98,-5,7
1584990418.767975,83,8,-4,-59,96,-128,-30,73
1584990418.775783,-35,-11,-7,20,83,-12,25,-22
1584990418.775783,66,19,11,-3,-128,6,24,16
1584990418.7843943,-51,-1,5,-48,49,127,35,-9
1584990418.7843943,-15,-7,-1,127,127,127,20,-118
1584990418.7990959,50,-4,-2,-127,-128,3,4,50
1584990418.7990959,27,4,8,110,2,-69,28,12
1584990418.8055952,-63,-4,-1,115,-120,127,-52,-24
1584990418.8055952,27,14,25,124,-50,127,95,17
1584990418.821903,12,-3,4,-128,127,127,12,-20
1584990418.821903,3,-5,5,127,114,5,5,25
1584990418.8236964,-28,-15,-18,-47,-106,-28,-64,-62
1584990418.8236964,14,1,-6,-16,-72,-10,17,5
1584990418.8357997,-15,4,6,-10,-49,-29,27,5
1584990418.8357997,-10,-1,-8,-19,-3,-41,7,-30
1584990418.844381,12,10,14,1,127,-89,-3,8
1584990418.844381,11,2,18,39,93,-60,-5,-2
1584990418.8594644,3,11,-5,-16,96,-11,14,49
1584990418.8594644,-19,-1,-4,-10,-13,-85,12,-56
1584990418.8612163,-79,-10,-10,-60,-41,-26,-32,-80
1584990418.8612163,19,3,7,69,-67,-39,39,31
1584990418.8818903,28,9,4,-38,-66,-103,13,46
1584990418.8818903,31,-10,-13,-81,-76,8,35,-14
1584990418.8835719,-33,-7,-7,-19,1,28,-4,-24
1584990418.8835719,-6,-8,0,-51,127,-43,-22,-9
1584990418.8957875,17,7,12,-6,17,-45,35,12
1584990418.8957875,12,8,-2,-65,-128,-128,28,23
1584990418.9043627,-5,4,9,4,127,127,66,-65
1584990418.9043627,0,-1,3,-39,-21,26,-50,-1
1584990418.9193392,7,3,1,1,127,41,41,13
1584990418.9193392,1,-4,-4,67,2,-128,-23,9
1584990418.921018,-15,-8,1,-8,-19,10,-38,-76
1584990418.921018,9,5,0,-12,-1,4,1,35
1584990418.9419205,-11,-3,-1,26,10,-25,-13,-31
1584990418.9419205,13,1,-10,-12,-4,-6,-1,12
1584990418.943794,15,5,4,9,10,9,4,56
1584990418.943794,27,3,2,-1,4,-8,14,3
1584990418.9558,22,13,7,-2,3,5,34,11
1584990418.9558,-81,-12,-11,-34,13,-39,-17,19
1584990418.9644165,13,6,-4,26,127,33,1,-7
1584990418.9644165,-3,-2,-5,-1,58,33,-9,2
1584990418.9868753,28,2,-1,-10,-3,26,16,14
1584990418.9868753,15,-1,-1,0,18,59,15,1
1584990418.988237,11,0,4,25,-7,-9,-1,4
1584990418.988237,3,-3,-8,-51,-24,-41,-12,-10
1584990419.0026333,-1,0,2,-37,49,11,8,2
1584990419.0026333,-4,0,-10,17,38,38,2,9
1584990419.0039833,-12,-1,-2,13,0,1,-5,-13
1584990419.0039833,-3,-6,1,7,-15,-12,-5,0
1584990419.0157933,2,0,-6,-6,-14,29,23,11
1584990419.0157933,-8,-2,-2,-10,-9,-3,-17,-9
1584990419.0243673,-1,-1,-3,-1,1,3,4,4
1584990419.0243673,11,3,2,-1,-3,2,8,10
1584990419.0393558,9,2,-1,-3,-1,1,-12,-9
1584990419.0393558,-2,5,3,5,9,45,-22,11
1584990419.0408056,0,-2,0,-5,0,24,2,-2
1584990419.0408056,5,-1,4,2,6,7,-2,15
1584990419.0618877,0,-3,1,0,3,0,1,-8
1584990419.0618877,-6,1,0,-2,1,-23,-12,-22
1584990419.0641348,3,4,1,-9,-1,-37,-1,-4
1584990419.0641348,7,-3,5,18,-33,36,14,12
1584990419.0757682,-2,-1,-4,-36,10,1,-1,-8
1584990419.0757682,0,4,3,-8,65,15,3,9
1584990419.0842972,-9,-7,-5,36,-3,-9,-4,-1
1584990419.0842972,3,-1,-2,-11,-7,-3,0,1
1584990419.0985885,-1,2,3,-2,-1,-1,-1,3
1584990419.0985885,2,3,0,-3,-2,-4,7,6
1584990419.1055431,-1,-1,-1,0,-1,0,-2,5
1584990419.1055431,0,-1,0,3,0,-1,2,4
1584990419.1218898,5,3,5,2,1,2,-1,-1
1584990419.1218898,-9,1,-2,-2,0,1,-3,-3
1584990419.1236725,-2,-1,-2,-3,-3,-1,-1,-1
1584990419.1236725,-3,-8,-3,0,3,-1,-4,-2
1584990419.1357598,10,-2,-4,-2,-1,-1,0,10
1584990419.1357598,0,2,3,3,1,2,0,7
1584990419.1443098,-14,-2,3,2,-3,-1,1,-9
1584990419.1443098,12,-7,1,-4,3,-5,-2,-16
1584990419.1599512,7,1,-3,-2,-2,-1,3,12
1584990419.1599512,2,0,2,1,-2,0,-2,-4
1584990419.1635678,-3,1,0,-1,-1,2,-1,-1
1584990419.1635678,9,-2,1,0,-2,4,2,-2
1584990419.181906,6,-2,-2,3,-1,-2,-1,2
1584990419.181906,8,-2,-9,-2,0,1,3,1
1584990419.1847525,11,-4,-2,-1,-2,-1,2,4
1584990419.1847525,-19,5,11,0,-3,-5,-3,8
1584990419.2044034,4,8,4,1,4,1,0,-11
1584990419.2044034,8,-1,-7,-1,1,-1,1,2
1584990419.205984,6,-4,-4,-3,2,0,-3,-1
1584990419.205984,3,-2,-3,0,-2,-2,-3,1
1584990419.2193067,1,-1,-2,0,0,-3,0,1
1584990419.2193067,-3,0,4,0,0,1,0,0
1584990419.2210407,7,0,0,0,-1,1,0,4
1584990419.2210407,58,-10,-6,-2,0,4,5,29
1584990419.2423408,-40,10,10,2,-2,-3,-1,-8
1584990419.2423408,-110,-19,-3,-1,-3,-5,-17,-60
1584990419.244113,1,3,-9,-3,1,1,0,3
1584990419.244113,24,-1,1,-3,-3,-2,3,9
1584990419.2643347,17,3,0,2,0,3,2,12
1584990419.2643347,11,0,-3,2,2,2,3,11
1584990419.2662082,15,-5,-4,0,0,2,1,1
1584990419.2662082,-11,-5,1,-2,-1,-5,-1,-3
1584990419.279327,0,0,-1,0,-1,0,-1,-1
1584990419.279327,0,-3,1,1,0,-2,4,-2
1584990419.2809958,6,8,1,-2,0,1,0,0
1584990419.2809958,3,-6,-4,0,-1,-2,2,22
1584990419.3018737,-41,6,1,-2,2,-2,-3,-34
1584990419.3018737,-14,0,0,2,-3,-4,-12,-14
1584990419.3034723,20,-6,-5,-4,-2,-4,0,0
1584990419.3034723,-6,-13,-3,-3,0,0,-1,3
1584990419.3157635,22,-8,-10,-3,-1,-1,0,19
1584990419.3157635,36,5,2,4,-1,1,6,20
1584990419.3242958,-39,23,18,2,-1,0,-2,-1
1584990419.3242958,-82,0,0,4,1,-2,-7,-60
1584990419.338586,30,-8,-1,-2,-1,-8,-10,-13
1584990419.338586,13,6,-10,-4,-5,-2,3,4
1584990419.3454673,-4,-51,-7,-2,-3,-2,1,24
1584990419.3454673,-18,29,14,6,0,4,3,-9
1584990419.3616087,15,6,10,4,0,3,2,7
1584990419.3616087,-19,-9,-11,-5,-5,1,2,16
1584990419.3680077,33,-6,-6,-5,0,-1,-2,-6
1584990419.3680077,37,5,2,3,5,2,6,33
1584990419.3756735,-2,-1,1,5,4,3,2,9
1584990419.3756735,-29,-22,-11,-3,-3,-5,-7,-7
1584990419.3843718,26,-5,-6,-7,-1,-6,-5,-5
1584990419.3843718,16,13,10,-2,-1,1,5,30
1584990419.3993173,-41,1,0,1,0,-1,4,7
1584990419.3993173,23,9,2,0,0,1,5,11
1584990419.401025,-12,4,1,3,2,5,5,-6
1584990419.401025,-79,-29,-18,-6,-8,-8,-19,-84
1584990419.4218905,20,23,18,-1,0,-2,4,29
1584990419.4218905,23,10,11,3,1,0,3,6
1584990419.4236677,-20,11,-4,3,3,3,7,3
1584990419.4236677,55,-7,-3,-3,-1,-3,-5,2
1584990419.4445074,-7,0,-11,-7,-5,-3,-3,-2
1584990419.4445074,23,-21,-9,8,3,-2,10,57
1584990419.4464927,-87,-3,19,-3,-5,-2,-11,-55
1584990419.4464927,52,16,7,-3,-5,-1,-4,9
1584990419.4580927,18,1,-6,1,0,0,5,12
1584990419.4580927,18,-2,-9,0,3,3,4,14
1584990419.466904,2,-3,-3,-1,2,0,0,-1
1584990419.466904,15,-3,1,-1,-1,2,-1,11
1584990419.4818745,-21,0,1,-1,-4,-2,-4,-2
1584990419.4818745,-90,-17,-4,-3,-3,-6,-11,-77
1584990419.4839594,2,-2,2,-3,1,0,0,6
1584990419.4839594,40,5,4,4,-1,0,3,9
1584990419.5043023,-46,-7,1,-2,-2,-2,-6,-23
1584990419.5043023,27,5,1,3,-2,3,0,14
1584990419.5058126,10,2,2,-2,-3,1,1,10
1584990419.5058126,24,-1,-2,0,-1,2,1,9
1584990419.5179572,-25,-6,1,-1,2,7,0,-3
1584990419.5179572,6,7,3,1,-2,-1,-1,2
1584990419.526887,15,6,1,1,2,2,4,23
1584990419.526887,11,-5,-3,-2,-1,2,-1,-25
1584990419.5424788,-1,-6,0,-1,-3,-2,-8,-5
1584990419.5424788,-8,6,4,0,-1,-3,-2,-7
1584990419.5442438,70,4,-3,-4,1,1,8,31
1584990419.5442438,-57,-8,-2,0,1,2,1,-10
1584990419.564296,-27,-4,-4,1,1,0,-1,-9
1584990419.564296,30,7,-3,-3,-4,-1,3,20
1584990419.5659192,57,-2,-3,-1,0,-4,-2,46
1584990419.5659192,16,0,2,0,-1,0,1,5
1584990419.5778937,-24,-3,-5,-1,-3,-4,-4,-20
1584990419.5778937,-4,6,0,5,4,-1,2,18
1584990419.5868149,-10,-2,1,-3,3,0,1,-1
1584990419.5868149,1,-2,-2,-1,-2,1,2,4
1584990419.6026285,1,-3,-2,-1,0,1,0,1
1584990419.6026285,-2,8,6,1,2,0,2,-2
1584990419.604002,0,-6,-10,-4,-3,-2,-5,3
1584990419.604002,8,-12,-1,0,0,-1,0,0
1584990419.6245244,32,24,21,5,2,4,4,-3
1584990419.6245244,-44,-14,-6,-4,-3,-7,-15,-20
1584990419.626359,47,4,-4,-2,-1,2,5,39
1584990419.626359,-50,-14,-10,-1,0,-7,-7,-44
1584990419.6393054,16,3,-3,0,-4,2,1,-7
1584990419.6393054,-27,-8,0,-2,-4,-3,-13,-36
1584990419.6407912,30,-3,-6,-4,1,-3,0,9
1584990419.6407912,38,3,-5,-3,1,5,7,23
1584990419.6618786,-36,-17,1,-7,-6,-5,-11,-11
1584990419.6618786,7,26,14,4,-5,-3,-2,8
1584990419.6641004,-19,-6,-5,4,1,4,2,-6
1584990419.6641004,9,-7,0,-2,-5,-6,-1,9
1584990419.6843112,5,1,-5,-1,-5,11,-1,4
1584990419.6843112,6,-3,-5,-2,-1,-18,-2,1
1584990419.6860662,-8,-1,-3,-3,5,9,4,16
1584990419.6860662,-4,-2,-2,1,0,2,-2,-27
1584990419.698676,0,0,2,-4,1,2,1,6
1584990419.698676,-4,1,0,-2,0,-3,0,0
1584990419.7054317,1,-1,1,0,1,0,3,1
1584990419.7054317,22,1,2,-2,-2,1,-1,14
1584990419.7218382,-61,-7,-3,-2,-6,0,-4,-31
1584990419.7218382,3,3,0,2,0,0,-1,-10
1584990419.7235038,1,-4,-2,0,-1,-3,1,3
1584990419.7235038,23,4,3,-2,-1,-1,2,34
1584990419.7444606,-17,-2,-1,-4,-3,-1,-4,-15
1584990419.7444606,-16,-2,0,-1,-2,-1,-1,4
1584990419.7461479,-15,3,3,1,0,3,3,15
1584990419.7461479,35,-4,-2,1,-1,-2,-4,-22
1584990419.758123,-66,-2,-9,-2,-5,1,0,-26
1584990419.758123,68,-12,-15,-5,-3,-5,-8,-7
1584990419.76688,20,20,26,5,0,1,2,11
1584990419.76688,-1,-2,-3,1,4,-3,2,28
1584990419.7818604,-19,-3,-9,-5,1,8,0,-33
1584990419.7818604,-19,-8,-9,-3,-1,2,-4,-6
1584990419.7838175,8,3,5,0,1,0,2,2
1584990419.7838175,7,-1,0,1,1,-2,-1,10
1584990419.8042793,1,0,-3,-3,-4,-1,0,-5
1584990419.8042793,2,1,-1,1,0,-4,1,0
1584990419.8057766,5,-3,2,0,-1,-1,-2,1
1584990419.8057766,1,0,0,1,0,-1,0,-2
1584990419.818424,-2,1,-5,-4,-2,1,1,3
1584990419.818424,21,1,-3,0,-3,4,1,2
1584990419.8275242,-7,-4,0,2,0,6,-1,10
1584990419.8275242,-49,3,8,-2,0,-1,-7,-37
1584990419.8418617,20,6,4,-2,3,-1,0,1
1584990419.8418617,17,-1,-8,-1,-1,1,1,0
1584990419.8435116,-8,-5,-4,0,1,0,1,13
1584990419.8435116,18,-10,-6,-3,0,6,1,-4
1584990419.8643246,30,4,-4,-1,2,-5,-4,-13
1584990419.8643246,-32,7,2,2,-1,-1,3,21
1584990419.8660958,40,-3,-1,1,-1,-1,-1,-5
1584990419.8660958,11,-4,-4,-3,-1,-4,-8,-10
1584990419.878126,0,3,-1,-4,-2,2,0,11
1584990419.878126,4,2,2,3,-1,2,3,0
1584990419.886823,-7,0,-1,-2,-1,4,0,16
1584990419.886823,8,0,1,-2,-1,2,2,-10
1584990419.9018517,14,1,-1,-3,-2,-1,-3,-6
1584990419.9018517,-1,3,-2,0,4,5,1,3
1584990419.9038615,-5,-2,1,-3,-3,-2,-2,-4
1584990419.9038615,2,0,5,0,1,1,1,2
1584990419.9245532,6,6,0,2,4,1,-1,2
1584990419.9245532,1,-6,-6,-1,-3,2,-1,4
1584990419.9264097,-2,-3,-2,0,0,0,0,4
1584990419.9264097,3,-9,-4,-5,0,1,-2,-10
1584990419.9380229,15,8,3,4,-3,1,2,-1
1584990419.9380229,-50,0,4,3,-1,1,2,-4
1584990419.9467907,24,2,0,0,3,-1,-2,-11
1584990419.9467907,32,-20,-9,-5,0,-4,-6,10
1584990419.9616523,-7,5,4,3,-2,1,0,1
1584990419.9616523,15,7,7,3,3,3,0,12
1584990419.9679136,-1,-4,-6,-2,-2,0,1,4
1584990419.9679136,-15,-6,0,0,2,-1,-4,-6
1584990419.98435,33,5,2,-1,1,0,0,7
1584990419.98435,-52,-9,-6,-1,-3,-2,-4,-33
1584990419.9862382,1,-7,-4,-4,1,-2,-2,-1
1584990419.9862382,19,8,8,0,1,-2,2,18
1584990419.9980593,14,3,3,5,4,4,5,4
1584990419.9980593,-14,-3,-6,-1,0,-2,-1,-6
1584990420.0068572,3,-4,-2,-2,1,-1,-2,3
1584990420.0068572,-1,-4,-4,-2,3,0,0,-1
1584990420.0218663,2,4,9,2,1,1,2,0
1584990420.0218663,0,2,-3,2,-2,8,5,7
1584990420.0236506,-3,-8,-7,1,-2,-22,-7,4
1584990420.0236506,9,0,-2,-3,-3,2,1,4
1584990420.0445254,14,3,-4,0,3,-1,2,-5
1584990420.0445254,-36,-1,2,3,1,4,-4,-7
1584990420.0463805,3,4,4,1,-1,-3,-3,2
1584990420.0463805,2,1,-3,-2,0,1,2,12
1584990420.058199,-8,-7,-9,-5,0,-2,1,-14
1584990420.058199,6,1,-2,-3,-2,0,0,10
1584990420.0668402,24,-3,10,3,2,0,2,4
1584990420.0668402,18,8,-1,-2,0,0,-5,5
1584990420.0818508,5,6,9,3,2,4,6,5
1584990420.0818508,-7,2,-5,-2,-2,-1,1,-11
1584990420.0839007,-19,-9,-9,-4,-2,-1,-2,1
1584990420.0839007,-1,-8,-5,-4,-1,-1,-4,-4
1584990420.1042845,12,1,-3,-1,-3,-2,1,21
1584990420.1042845,-10,-4,-3,1,-2,0,-3,-18
1584990420.1057723,-8,4,11,2,-2,1,-3,-10
1584990420.1057723,12,2,4,0,-1,1,-3,0
1584990420.1179495,12,2,-5,-4,0,2,0,3
1584990420.1179495,1,0,-3,1,0,0,1,8
1584990420.1269057,15,-1,0,2,2,-3,-2,-3
1584990420.1269057,0,-8,-4,-1,-3,-1,-5,-15
1584990420.1418717,12,7,0,2,0,0,0,13
1584990420.1418717,4,-2,-1,1,-1,-6,-5,-15
1584990420.1438193,6,9,12,1,-2,2,0,6
1584990420.1438193,-6,-2,-3,-1,1,15,4,4
1584990420.1650372,41,-3,-5,1,2,-13,-4,2
1584990420.1650372,-55,-8,-4,-5,-6,-4,-6,-26
1584990420.1669867,8,5,7,6,2,1,1,21
1584990420.1669867,-54,-14,-10,0,-1,0,-6,-18
1584990420.1781502,23,-3,5,0,1,1,5,13
1584990420.1781502,13,6,-2,-2,0,-2,2,-4
1584990420.1868331,-4,5,12,0,4,2,1,2
1584990420.1868331,-12,-5,-3,-1,1,-1,-3,-16
1584990420.2018266,1,-2,-5,-4,-3,-1,0,5
1584990420.2018266,-2,-1,-5,-1,0,-2,2,6
1584990420.2039065,1,-4,1,-1,1,1,-1,1
1584990420.2039065,3,3,6,2,0,0,1,4
1584990420.2251425,0,2,1,1,2,-2,2,-5
1584990420.2251425,6,1,-5,-1,-5,-4,-3,6
1584990420.2272816,-38,-5,-4,-2,-3,3,0,-9
1584990420.2272816,-8,-3,0,1,-1,-3,2,5
1584990420.2379355,9,4,3,1,4,0,-2,-16
1584990420.2379355,44,3,-4,-1,1,12,8,23
1584990420.2468565,-62,-7,1,-1,-1,-22,-7,-28
1584990420.2468565,-1,-2,-3,-2,0,-5,-1,1
1584990420.2618666,9,-4,-9,-7,-2,1,1,-4
1584990420.2618666,3,9,9,2,-1,4,4,23
1584990420.263838,-5,-4,0,3,3,2,-2,-32
1584990420.263838,-6,-3,3,-3,-2,-5,-4,-13
1584990420.2843053,2,0,-6,-2,0,24,7,7
1584990420.2843053,1,3,6,-3,-9,-38,-9,2
1584990420.286005,-31,-4,-2,1,1,8,-2,-8
1584990420.286005,34,4,1,0,0,0,7,55
1584990420.2979503,-2,-12,-5,-4,-3,7,9,-79
1584990420.2979503,9,3,-1,-2,-5,4,5,13
1584990420.306787,-10,1,4,-1,-52,-14,20,17
1584990420.306787,10,6,11,1,43,61,-47,56
1584990420.3204503,30,2,-10,2,55,-44,-20,-14
1584990420.3204503,-53,-3,6,3,41,-17,45,-80
1584990420.3293583,33,-6,-8,-9,-51,1,-25,57
1584990420.3293583,98,3,-5,-6,-72,-21,-16,-25
1584990420.3444495,-40,0,3,17,108,71,17,42
1584990420.3444495,20,10,5,-18,-16,-77,-10,2
1584990420.3461783,-41,-10,-6,-6,-24,17,4,-41
1584990420.3461783,18,-4,1,4,7,5,9,10
1584990420.3581119,15,10,3,1,-8,2,9,12
1584990420.3581119,15,0,-2,9,33,5,-1,7
1584990420.3668084,5,-1,0,-5,57,25,5,-1
1584990420.3668084,-1,-8,-3,-3,-22,-31,-12,-6
1584990420.380399,1,1,0,1,-8,-3,0,3
1584990420.380399,0,1,-2,1,-5,0,1,1
1584990420.3893695,-4,1,-1,1,-6,-11,-6,-12
1584990420.3893695,-1,-2,-4,-2,5,28,16,14
1584990420.404323,-1,1,-2,-7,-2,-9,-2,-6
1584990420.404323,5,-2,-4,-3,3,16,-4,3
1584990420.4060647,-13,2,3,4,2,12,0,-5
1584990420.4060647,38,3,0,1,-9,-14,10,8
1584990420.4343119,-46,1,8,1,1,-11,-1,41
1584990420.4343119,-3,-1,-1,-1,-1,-6,-13,-102
1584990420.4363635,47,6,1,5,-12,14,24,37
1584990420.4363635,-39,-10,-4,0,-6,-33,-23,-66
1584990420.4405596,-3,2,1,16,-21,4,10,23
1584990420.4405596,21,3,1,5,45,27,-1,26
1584990420.4494152,3,-5,-8,-29,1,-19,-2,-19
1584990420.4494152,5,2,6,11,32,11,11,12
1584990420.4642925,-15,-3,-5,-1,-6,-14,-15,-18
1584990420.4642925,-6,-6,-1,4,-23,1,-9,-17
1584990420.466069,-11,-2,2,6,-5,32,46,-1
1584990420.466069,-2,0,-4,0,2,25,-29,3
1584990420.4867978,1,-3,-3,-16,-6,-29,-1,-5
1584990420.4867978,10,-5,-5,-3,-8,0,-26,-12
1584990420.488635,-41,-7,4,0,-12,-15,-4,-29
1584990420.488635,4,3,5,1,0,-24,7,11
1584990420.5018015,24,0,-4,2,5,15,3,-33
1584990420.5018015,31,9,-1,4,21,14,26,26
1584990420.5094452,-74,-22,-6,-6,18,39,-20,4
1584990420.5094452,9,2,1,1,-123,54,10,-74
1584990420.5243309,29,9,0,-33,84,-19,-40,23
1584990420.5243309,26,11,11,43,84,-71,44,41
1584990420.525706,-3,-10,-9,-63,52,43,21,-16
1584990420.525706,-9,-8,-4,-7,-30,36,9,26
1584990420.5468485,6,4,0,-13,-22,-4,-32,-44
1584990420.5468485,-20,4,-10,-31,81,-23,-10,2
1584990420.5486145,-7,1,-2,33,75,22,23,-62
1584990420.5486145,2,-1,3,27,34,107,-30,-54
1584990420.5605037,5,-6,-1,-57,-125,-19,3,89
1584990420.5605037,1,7,4,14,83,46,-37,-33
1584990420.569283,-1,-5,3,21,-48,69,28,18
1584990420.569283,-25,-27,-31,-47,127,60,34,-71
1584990420.5843172,-5,2,1,-29,-128,127,41,-76
1584990420.5843172,7,2,-2,-7,114,-52,-32,74
1584990420.5861158,13,-6,-8,-35,-101,92,29,30
1584990420.5861158,127,22,25,106,-128,-82,-14,59
1584990420.6142752,-128,-22,-3,-64,-128,-91,-51,-78
1584990420.6142752,75,17,19,101,5,94,35,-41
1584990420.6164644,80,9,7,-62,-32,71,90,51
1584990420.6164644,42,-8,-31,-24,127,-101,-4,89
1584990420.6217864,-91,-21,12,-12,-86,30,18,-128
1584990420.6217864,14,3,-17,-90,127,110,-7,39
1584990420.6295094,25,-3,-12,15,-128,-38,127,-14
1584990420.6295094,15,-7,-20,-118,-128,-128,-122,-8
1584990420.6518428,-94,-1,10,29,127,124,-7,-20
1584990420.6518428,25,3,-3,-128,-121,54,40,43
1584990420.653669,-13,-1,14,127,127,-101,-28,-128
1584990420.653669,38,-18,-3,48,-128,-95,-5,127
1584990420.6743085,22,30,10,-32,127,-128,-67,89
1584990420.6743085,-17,-2,3,-128,127,67,-60,10
1584990420.6757774,0,-10,-3,-86,-60,53,16,-17
1584990420.6757774,53,1,-23,58,-128,13,-6,-19
1584990420.681214,-26,1,4,-17,127,35,71,27
1584990420.681214,-69,-28,-25,-128,-128,-25,-30,-128
1584990420.6893964,-34,2,-24,-93,9,-128,-50,-46
1584990420.6893964,63,-16,5,-128,-128,-128,23,48
1584990420.7043006,-108,14,18,10,-128,-128,4,-85
1584990420.7043006,24,-22,-22,-69,-37,-128,-54,-11
1584990420.7060924,28,2,-15,-29,-128,-106,-24,-7
1584990420.7060924,34,5,-5,2,127,127,20,44
1584990420.7268374,43,-4,-7,-84,-128,-32,-21,65
1584990420.7268374,-17,-15,-23,-128,-70,-37,47,-73
1584990420.7281978,-70,-9,7,8,127,-60,14,-12
1584990420.7281978,27,24,24,127,-76,5,-15,-38
1584990420.7404609,32,1,-10,-73,127,127,69,127
1584990420.7404609,30,-3,11,127,-125,-54,-28,-9
1584990420.749322,-10,-1,3,-71,-128,-17,-27,-52
1584990420.749322,-21,-8,-28,127,127,127,17,-58
1584990420.7644827,8,7,11,33,10,79,44,-37
1584990420.7644827,37,20,9,-88,127,127,81,95
1584990420.7663045,4,-10,8,-100,-21,-61,-40,16
1584990420.7663045,39,6,3,-103,127,-40,-30,-78
1584990420.7868342,40,9,2,26,-41,103,-74,74
1584990420.7868342,-87,15,25,83,-75,-41,14,-77
1584990420.788604,-41,-11,7,61,-53,-4,-6,46
1584990420.788604,-1,-6,0,105,10,-47,28,-22
1584990420.800459,102,4,-1,13,76,-6,-15,87
1584990420.800459,16,4,3,-18,6,127,18,0
1584990420.8093271,34,2,7,-106,14,24,-17,-6
1584990420.8093271,-13,13,25,127,127,12,57,41
1584990420.824303,-12,-2,-3,115,-128,-7,28,-99
1584990420.824303,6,3,5,-85,-37,102,28,-6
1584990420.8260436,-9,-2,-11,-128,-46,-77,-9,17
1584990420.8260436,6,3,10,50,31,127,-10,29
1584990420.8467777,-5,5,0,17,6,-21,12,-100
1584990420.8467777,-25,-1,6,-17,-109,-38,54,-91
1584990420.84833,14,1,7,-12,-10,0,-99,107
1584990420.84833,-5,0,5,66,-37,2,67,-8
1584990420.8603833,-3,2,-2,7,127,45,-15,7
1584990420.8603833,-3,1,2,3,-58,34,-30,-36
1584990420.8692684,3,5,15,92,-16,37,20,104
1584990420.8692684,71,10,3,-126,-61,31,43,7
1584990420.8844147,-31,0,-2,33,50,25,32,-13
1584990420.8844147,-59,-4,8,-4,-43,-107,-53,74
1584990420.8862815,63,17,23,65,-107,4,30,-55
1584990420.8862815,-115,-5,-9,-122,50,38,-18,20
1584990420.9068499,16,1,-11,33,15,0,47,1
1584990420.9068499,35,5,3,78,127,3,-37,15
1584990420.908586,16,-8,-17,53,39,8,-34,-35
1584990420.908586,18,9,13,41,-38,13,49,67
1584990420.929387,10,8,0,19,-48,-29,-15,-27
1584990420.929387,2,0,-1,-15,-12,20,17,15
1584990420.9311702,-1,-3,4,-19,-5,2,1,-20
1584990420.9311702,-5,0,-5,-22,-6,3,2,51
1584990420.944344,-5,3,4,-2,-3,9,20,-6
1584990420.944344,-6,0,-2,0,-4,6,-21,-47
1584990420.9460888,2,-1,1,3,5,-2,0,0
1584990420.9460888,12,3,6,34,-7,6,-39,51
1584990420.966851,18,9,6,21,-116,6,8,-9
1584990420.966851,-6,-7,-5,-12,19,-10,-16,-20
1584990420.9682062,-22,-7,1,1,-11,5,-7,-73
1584990420.9682062,-76,-8,-4,-11,13,1,6,-5
1584990420.9804387,-16,0,3,15,39,126,-2,-17
1584990420.9804387,23,8,5,24,-47,17,4,-3
1584990420.9892967,25,8,7,3,-51,17,13,13
1584990420.9892967,17,5,17,-12,45,21,5,-38
1584990421.0044968,17,-5,-9,1,-7,3,9,72
1584990421.0044968,0,5,-2,3,9,-3,-12,15
1584990421.0063214,-2,0,3,1,-28,2,20,-9
1584990421.0063214,-13,-3,0,3,13,-6,18,-50
1584990421.0274558,-4,-4,-10,-14,-11,-1,-35,-39
1584990421.0274558,-3,-3,-5,-17,4,-5,-4,-13
1584990421.0295975,-6,-4,17,4,-2,-7,1,-2
1584990421.0295975,-3,4,-6,5,1,4,4,8
1584990421.0404463,-4,0,-3,-1,4,-1,2,0
1584990421.0404463,1,-4,-3,-1,0,0,0,9
1584990421.0493166,-1,-2,-1,-1,0,-1,0,-11
1584990421.0493166,-2,4,7,-2,0,0,0,1
1584990421.064319,2,3,-3,2,0,-4,0,4
1584990421.064319,-2,-7,-10,-5,-4,0,-1,-1
1584990421.0661528,2,-5,-5,-2,-1,-4,-2,2
1584990421.0661528,4,-11,7,1,0,-1,-2,2
1584990421.0868442,1,18,17,4,0,-2,-2,-3
1584990421.0868442,-17,8,4,0,1,-2,-1,-3
1584990421.0885603,18,-8,-13,-5,0,-1,0,2
1584990421.0885603,-16,-8,-4,-3,-6,0,-4,-4
1584990421.1004477,-7,4,0,1,-3,1,0,1
1584990421.1004477,9,-1,5,-1,0,-3,-1,5
1584990421.1092982,9,-6,-5,0,0,-1,-1,0
1584990421.1092982,22,-6,-10,-2,-1,2,3,6
1584990421.1242564,18,-4,4,0,1,1,4,8
1584990421.1242564,-97,-4,-5,-7,-4,-6,-14,-52
1584990421.1258276,8,8,3,-2,-3,1,-2,1
1584990421.1258276,40,3,0,1,4,2,5,15
1584990421.1480777,24,5,-2,-2,0,2,5,11
1584990421.1480777,0,-5,2,-4,1,0,2,5
1584990421.1505969,-34,-28,-1,-1,2,-3,-3,-9
1584990421.1505969,1,11,8,6,3,2,-3,2
1584990421.1604066,-4,2,5,-3,-3,-1,7,-18
1584990421.1604066,-22,2,-3,1,0,-1,3,1
1584990421.1692955,1,-1,-6,-1,-1,0,-3,0
1584990421.1692955,9,0,0,-1,1,-3,1,3
1584990421.1848066,22,12,-6,-5,1,-1,-1,2
1584990421.1848066,12,-3,5,2,-4,-1,3,1
1584990421.1874504,20,-3,-1,2,-1,0,1,5
1584990421.1874504,-79,-10,-4,-2,-2,0,-1,-15
1584990421.2073677,8,-3,0,-2,-6,-2,-6,-7
1584990421.2073677,16,1,-2,-1,1,1,2,4
1584990421.2081523,-18,-14,-5,-5,-1,-3,-1,1
1584990421.2081523,21,7,10,1,4,0,-4,4
1584990421.2203794,0,-8,-1,1,-1,-3,-2,5
1584990421.2203794,8,13,3,-4,-2,-2,-4,-10
1584990421.2293992,-11,3,10,3,4,5,7,10
1584990421.2293992,31,7,-9,-5,-1,-1,-3,10
1584990421.2443013,-10,-15,-12,-5,0,0,-2,-16
1584990421.2443013,-43,-10,1,1,3,0,-2,-6
1584990421.2461472,43,17,6,0,0,-4,0,-11
1584990421.2461472,60,10,-3,-3,0,2,6,22
1584990421.2743204,33,-1,7,3,3,-1,-3,7
1584990421.2743204,-128,-40,-5,-1,-4,-4,-12,-68
1584990421.276509,56,19,7,-3,0,-1,6,17
1584990421.276509,6,-1,-7,-6,-4,-1,-2,-9
1584990421.2803931,26,-1,-3,-1,1,5,0,3
1584990421.2803931,100,17,-1,6,1,2,7,40
1584990421.2892792,22,-8,12,0,1,-2,4,7
1584990421.2892792,-119,-21,-5,-4,3,-2,-8,-14
1584990421.3031354,51,10,-1,-4,0,3,8,-5
1584990421.3031354,36,6,-1,-1,-2,-1,-6,12
1584990421.3118057,64,12,5,2,3,3,12,55
1584990421.3118057,-38,-12,6,5,3,-1,-3,-31
1584990421.3267376,-73,-10,-8,-7,-6,-10,-16,-31
1584990421.3267376,-7,0,-1,1,1,-4,2,-7
1584990421.3286824,13,0,1,-2,-1,1,-2,5
1584990421.3286824,9,3,0,0,2,3,3,14
1584990421.3493073,10,1,-1,1,0,1,3,14
1584990421.3493073,26,1,2,1,0,-1,2,38
1584990421.3506312,-14,-4,-1,-2,2,2,5,-7
1584990421.3506312,-25,-12,-6,-1,-7,-2,-14,-23
1584990421.3629003,-17,6,0,2,-4,-1,5,-6
1584990421.3629003,18,-1,-4,-2,-4,-6,-3,23
1584990421.3718123,11,2,0,-3,0,1,4,-21
1584990421.3718123,43,5,6,2,-1,5,-5,60
1584990421.386837,-39,-3,1,1,7,2,2,-10
1584990421.386837,3,1,-6,0,0,-3,-4,-46
1584990421.388633,12,-2,3,-5,-4,-6,-7,-8
1584990421.388633,12,7,5,6,-1,5,1,34
1584990421.4091852,42,8,-1,1,2,4,17,2
1584990421.4091852,-128,-23,-9,-7,-2,-4,-6,-26
1584990421.4153898,1,-5,-3,0,2,9,-9,-76
1584990421.4153898,21,12,7,4,2,5,10,39
1584990421.4228895,-12,-3,-2,-5,-4,-3,5,-2
1584990421.4228895,23,-12,-10,-5,-6,-5,-17,-51
1584990421.437951,8,3,2,0,0,0,4,5
1584990421.437951,-2,7,1,2,4,2,2,8
1584990421.4468179,9,1,-4,-2,-1,0,4,7
1584990421.4468179,6,9,8,4,-3,0,5,11
1584990421.448543,-40,-23,4,-2,2,1,-10,-33
1584990421.448543,32,9,-2,-1,-1,-1,-2,24
1584990421.4693694,1,9,6,2,3,0,8,-6
1584990421.4693694,-23,-7,-4,-2,0,3,4,26
1584990421.471391,23,8,0,1,1,1,-1,-21
1584990421.471391,-34,-19,-5,1,-1,0,-3,-6
1584990421.4849367,36,-1,-5,-3,-4,-3,-6,-27
1584990421.4849367,5,-5,-1,-3,0,3,3,20
1584990421.4871757,-17,2,3,0,3,0,-12,37
1584990421.4871757,-5,6,0,-3,1,0,-7,-43
1584990421.5068367,9,10,-1,1,4,3,9,59
1584990421.5068367,-14,-4,2,1,4,-2,-9,-1
1584990421.5086823,8,-6,0,-2,-2,-4,-7,-18
1584990421.5086823,26,3,-3,2,0,-3,4,8
1584990421.5293546,-4,-1,1,0,-2,1,-4,15
1584990421.5293546,72,0,-4,-1,-3,0,7,22
1584990421.5311236,-38,-1,0,-3,0,-2,-3,-9
1584990421.5311236,31,-6,-6,-2,0,-4,0,5
1584990421.543944,-10,0,-2,-3,-1,1,3,-13
1584990421.543944,3,-1,2,2,3,0,0,7
1584990421.5504584,5,-4,-3,-3,-1,-1,0,4
1584990421.5504584,19,0,0,1,0,1,1,7
1584990421.5668857,-58,2,2,2,-1,1,4,10
1584990421.5668857,9,-7,1,0,-1,-3,-6,-10
1584990421.5682347,25,12,8,3,1,-2,-3,4
1584990421.5682347,-37,-6,-2,-3,0,1,-2,-28
1584990421.589348,16,1,-5,-2,-1,0,0,10
1584990421.589348,21,-1,-3,0,0,1,1,20
1584990421.5911446,-17,-3,5,-1,1,0,4,-5
1584990421.5911446,3,2,0,-1,-5,2,2,-3
1584990421.6038334,24,2,-2,-1,1,-3,-3,4
1584990421.6038334,-30,-4,2,1,0,-1,1,-1
1584990421.6104193,9,1,3,2,-1,1,-1,-2
1584990421.6104193,14,1,-2,-1,-2,2,-4,0
1584990421.6268191,-25,-2,-5,-2,-1,-3,-4,-33
1584990421.6268191,16,1,-3,2,-3,1,1,33
1584990421.6285582,24,-2,1,4,0,2,11,43
1584990421.6285582,-33,-16,-6,-3,-5,-5,-12,-24
1584990421.649363,11,0,-2,-5,-3,-2,-12,-45
1584990421.649363,-2,3,2,4,3,1,0,-9
1584990421.650776,55,6,1,-1,0,-1,3,33
1584990421.650776,-30,-10,-6,-3,-1,-5,-9,-7
1584990421.6629236,-17,-5,0,0,2,-3,-3,-40
1584990421.6629236,-5,-1,-1,0,0,2,-1,12
1584990421.671799,26,7,3,0,3,0,1,10
1584990421.671799,-3,0,2,0,-1,-3,1,6
1584990421.6868126,0,-1,-4,-1,4,2,3,-2
1584990421.6868126,4,0,-1,0,2,-1,3,-2
1584990421.6886756,-9,1,1,-2,-2,1,-4,-9
1584990421.6886756,5,1,-4,-1,-2,-2,2,11
1584990421.7093456,-2,0,-2,-1,1,-1,-2,-6
1584990421.7093456,21,-3,2,-2,2,-1,-1,-3
1584990421.7111576,2,0,0,-2,-2,0,3,3
1584990421.7111576,-43,-5,-3,0,-3,-1,-4,-8
1584990421.7229285,-11,4,1,1,0,0,2,8
1584990421.7229285,16,0,-2,1,1,-2,4,16
1584990421.731764,3,-1,-2,-3,-6,-2,-13,-53
1584990421.731764,3,-11,-3,2,-3,1,1,-9
1584990421.7468252,5,10,1,-2,0,-3,3,45
1584990421.7468252,38,-1,-1,0,-4,-1,4,41
1584990421.7485838,-128,-25,-10,-8,-2,-8,-26,-82
1584990421.7485838,49,5,0,3,1,-1,4,19
1584990421.7693727,25,4,1,4,2,1,5,17
1584990421.7693727,1,4,4,2,3,1,6,23
1584990421.7711406,2,-5,-3,-4,-3,0,4,14
1584990421.7711406,7,-1,-4,-3,-4,-2,0,-11
1584990421.7830796,-6,3,-1,-2,0,-1,-4,-6
1584990421.7830796,-7,-1,1,0,-2,-1,-2,0
1584990421.791782,-10,-3,-4,-1,0,2,-2,-5
1584990421.791782,1,1,1,-1,0,0,0,0
1584990421.8067153,0,4,0,1,0,-2,1,-6
1584990421.8067153,2,-3,4,-1,2,-3,-1,13
1584990421.808463,1,-4,1,2,0,-2,4,2
1584990421.808463,3,3,-1,-3,-1,-2,-5,-4
1584990421.829274,8,1,-1,1,1,1,3,15
1584990421.829274,-6,-8,-1,-1,0,-4,-12,-49
1584990421.8306596,18,-1,0,-2,-2,0,4,13
1584990421.8306596,46,11,6,2,4,0,1,15
1584990421.8428743,-108,-21,-12,-8,-7,-6,-4,-88
1584990421.8428743,-17,3,1,-2,0,1,2,32
1584990421.8518567,61,2,2,1,1,-1,-5,8
1584990421.8518567,-23,1,-2,-2,-1,-4,-4,-41
1584990421.8671951,8,6,2,3,-2,2,4,9
1584990421.8671951,14,-2,-1,3,3,0,5,3
1584990421.868585,-4,-5,-1,1,-1,1,1,8
1584990421.868585,6,1,3,0,2,-2,0,3
1584990421.8892827,3,2,-3,-2,-1,-4,-1,2
1584990421.8892827,-2,-6,1,-1,-1,2,-3,0
1584990421.8910453,-1,-3,-3,0,-2,-1,-2,2
1584990421.8910453,3,0,-2,0,0,1,-1,13
1584990421.9030101,-9,-2,-3,-2,-5,0,0,-44
1584990421.9030101,-1,-6,2,1,-2,0,-1,19
1584990421.9117777,3,1,2,-5,1,-2,6,-6
1584990421.9117777,9,1,1,1,1,1,-8,-5
1584990421.9267037,-1,0,-1,0,-3,2,1,3
1584990421.9267037,24,6,3,0,1,2,3,-18
1584990421.9283886,-28,-14,-4,-5,-3,-3,-5,-13
1584990421.9283886,14,-4,-4,-3,-3,-6,-5,0
1584990421.9493122,21,13,5,0,0,4,3,0
1584990421.9493122,-45,-1,1,0,4,2,2,-3
1584990421.9506478,5,-4,-2,-1,1,2,-1,15
1584990421.9506478,-2,2,-1,2,1,-1,-1,-22
1584990421.9629142,20,8,5,3,13,7,2,5
1584990421.9629142,-3,-2,-4,-2,-8,0,3,14
1584990421.9718034,36,-6,-3,-2,-7,-16,-5,-8
1584990421.9718034,-97,-10,-5,-3,0,4,-7,-18
1584990421.9867449,24,6,1,2,14,6,-1,3
1584990421.9867449,44,6,1,-5,-9,-11,2,31
1584990421.9885275,-26,-5,0,-2,-11,-5,0,10
1584990421.9885275,22,9,4,1,5,-5,1,10
1584990422.009252,60,4,-3,0,-9,-5,6,7
1584990422.009252,-68,-3,3,4,10,7,1,9
1584990422.0153847,-56,-2,4,6,10,7,5,-3
1584990422.0153847,22,-8,-6,-2,1,1,-7,1
1584990422.022906,27,4,1,2,-1,1,4,12
1584990422.022906,4,-1,-2,1,-1,1,4,-2
1584990422.039265,2,-2,2,0,0,1,-8,-19
1584990422.039265,2,1,3,-1,-2,0,9,24
1584990422.0468087,-3,-2,-3,-2,2,0,7,10
1584990422.0468087,-3,0,-1,1,1,14,0,-10
1584990422.0485053,-3,-3,5,-2,3,18,-3,-10
1584990422.0485053,4,3,-3,-1,-2,7,6,-15
1584990422.0693958,3,-1,-5,-4,-1,6,6,42
1584990422.0693958,13,-6,0,3,-1,-3,-1,-9
1584990422.0713289,-21,-4,0,-5,-1,-1,-1,-27
1584990422.0713289,4,-1,3,2,2,0,1,3
1584990422.0830402,7,6,-1,-3,-5,4,9,4
1584990422.0830402,5,-4,-4,-3,-2,7,-10,44
1584990422.091775,-3,-11,-1,-4,-5,0,-13,-68
1584990422.091775,4,1,-4,-4,4,-11,3,22
1584990422.1068165,2,6,5,-1,7,49,16,8
1584990422.1068165,3,5,6,3,2,-17,14,8
1584990422.1086044,-6,-10,-10,-6,1,-1,-7,-9
1584990422.1086044,-3,-4,-9,-2,-6,11,0,17
1584990422.1293132,7,7,10,9,11,35,-5,0
1584990422.1293132,0,8,15,22,-6,21,-7,1
1584990422.130746,-5,-6,-4,-29,-2,-11,-20,-17
1584990422.130746,-1,-6,-16,3,15,12,14,26
1584990422.1428514,5,0,-4,3,3,3,-8,16
1584990422.1428514,-2,6,21,1,-8,1,7,-4
1584990422.1517935,-4,-9,-8,6,-11,2,-12,16
1584990422.1517935,5,5,1,22,1,-7,-8,8
1584990422.1653473,-2,-3,-7,-12,-5,9,0,-94
1584990422.1653473,0,-5,-1,-19,11,26,21,101
1584990422.174316,-2,-2,-5,-14,21,-26,21,-18
1584990422.174316,12,2,-3,4,-2,50,49,-2
1584990422.1893172,-13,10,9,85,19,-45,-35,-128
1584990422.1893172,12,-7,-5,-81,-15,-92,26,127
1584990422.191033,7,-1,1,-25,100,-41,19,114
1584990422.191033,-11,-10,-3,-13,77,27,-77,-128
1584990422.2030728,6,-7,-13,-103,36,-128,-46,-14
1584990422.2030728,8,13,24,113,58,53,-1,112
1584990422.2117946,-14,-25,-31,-128,127,-42,-73,-128
1584990422.2117946,6,18,28,14,-62,68,61,-47
1584990422.2254303,14,-4,-12,127,127,-10,-67,52
1584990422.2254303,-26,-11,-4,-112,-128,-9,31,-13
1584990422.2403543,4,-20,-22,11,-20,-45,-40,-37
1584990422.2403543,3,-3,2,-45,2,127,47,-66
1584990422.2493496,9,19,33,127,-128,-128,-128,49
1584990422.2493496,88,13,2,-128,83,56,25,25
1584990422.2510884,-32,-10,8,-72,-55,127,-41,6
1584990422.2510884,-110,-21,-15,127,5,31,-1,-55
1584990422.2723563,70,16,6,-22,127,-41,3,48
1584990422.2723563,-25,16,15,106,127,-21,-45,-128
1584990422.2741947,9,-31,-30,-128,-15,-128,-71,-38
1584990422.2741947,30,4,4,111,-128,-16,-7,88
1584990422.285545,-19,10,17,127,87,-81,-4,-21
1584990422.285545,-55,-12,6,-47,-94,127,24,-88
1584990422.294291,8,12,-5,41,116,-26,62,-17
1584990422.294291,24,11,8,-33,-128,-115,-57,31
1584990422.3093033,30,11,4,10,44,-31,56,112
1584990422.3093033,-10,-5,11,121,-128,-128,-22,-22
1584990422.315338,-5,-13,-22,-128,127,-45,-13,3
1584990422.315338,-21,7,-8,7,-128,111,-6,-95
1584990422.333032,44,18,10,126,-45,-38,-12,127
1584990422.333032,-2,-28,-1,-128,92,49,97,-46
1584990422.3345425,-7,11,34,127,-128,30,-103,43
1584990422.3345425,9,0,-20,-27,-13,-18,64,-27
1584990422.345402,-18,-9,-10,127,29,73,49,-119
1584990422.345402,15,5,14,109,127,37,-69,-103
1584990422.3542469,-48,-15,-42,-128,-23,127,-3,-45
1584990422.3542469,18,6,-2,-1,127,66,119,34
1584990422.36934,2,2,7,72,98,-101,15,22
1584990422.36934,49,14,12,-67,127,117,39,0
1584990422.3711307,34,-3,1,-90,-128,-128,-23,-20
1584990422.3711307,-98,-2,-3,1,127,-54,-2,-72
1584990422.3917017,-73,-15,-29,-128,10,23,3,-60
1584990422.3917017,38,-16,-5,11,-16,-97,-116,64
1584990422.3934674,55,31,26,-128,-128,-38,29,74
1584990422.3934674,23,-5,-27,127,4,103,-57,-97
1584990422.4053817,12,-1,10,-113,-128,-128,-55,-73
1584990422.4053817,11,7,13,54,-128,-23,21,2
1584990422.414249,-20,2,2,49,38,-12,-5,5
1584990422.414249,5,-4,-21,-128,127,-45,4,127
1584990422.42927,5,-1,10,-44,-128,-5,-22,-9
1584990422.42927,-10,-1,5,127,-128,-61,22,-87
1584990422.4306138,29,9,19,-28,-13,71,-14,10
1584990422.4306138,-5,6,-5,0,127,13,28,-22
1584990422.4674199,0,2,-11,-128,114,54,22,12
1584990422.4674199,6,-7,4,69,36,-82,-17,-11
1584990422.4688034,13,10,5,-37,98,127,3,55
1584990422.4688034,-1,-17,-23,-5,48,-3,-21,-16
1584990422.4695556,4,7,4,29,-19,6,11,10
1584990422.4695556,-57,-6,1,127,-95,-128,9,-40
1584990422.475225,12,-11,-11,-71,-9,-30,-75,-128
1584990422.475225,-11,-2,-4,-29,67,127,-6,-54
1584990422.4893115,-12,-11,1,19,-21,106,60,-128
1584990422.4893115,5,5,-5,-52,-76,-75,12,27
1584990422.4910882,62,18,27,127,14,-16,-35,-9
1584990422.4910882,-44,-7,-24,-65,-104,-128,-52,-55
1584990422.5117974,-40,-25,-15,-128,-27,-128,-100,-96
1584990422.5117974,-1,-3,1,82,18,7,-68,-113
1584990422.5135105,5,-7,-7,127,-44,-29,-27,-40
1584990422.5135105,-11,-3,-7,3,-128,-100,-26,-100
1584990422.52536,8,-9,-15,-80,119,-60,-12,-48
1584990422.52536,-29,-9,-4,-82,-97,77,-10,-65
1584990422.5342653,35,11,8,112,54,47,0,31
1584990422.5342653,-16,-22,-33,-78,106,-128,-68,-68
1584990422.5492332,5,-4,0,94,127,14,6,-33
1584990422.5492332,12,-8,5,16,5,-52,-24,37
1584990422.5506804,-40,10,19,127,-128,22,-11,-85
1584990422.5506804,-7,-1,2,-36,-23,127,31,29
1584990422.5719836,3,-7,-9,2,-13,-23,-22,-20
1584990422.5719836,8,2,9,-17,-91,-20,42,29
1584990422.5741708,0,-4,-11,-53,-29,-27,22,56
1584990422.5741708,-13,-6,-3,1,3,3,47,29
1584990422.5942497,-11,-10,-10,19,7,-3,-4,-56
1584990422.5942497,-14,-6,1,106,102,-95,-17,9
1584990422.5964253,19,0,4,-38,3,-52,-35,-84
1584990422.5964253,-11,1,-2,51,-69,3,-2,-94
1584990422.6091704,16,8,13,9,92,37,-14,50
1584990422.6091704,2,-14,-12,-4,83,127,37,35
1584990422.6153858,-12,-15,-6,-47,31,90,-35,-17
1584990422.6153858,-2,1,3,40,-50,-11,20,-8
1584990422.6318033,1,8,0,-122,-97,-71,-52,-75
1584990422.6318033,-2,-5,-1,28,86,92,1,-21
1584990422.6331496,9,4,7,0,-2,-2,30,52
1584990422.6331496,7,6,4,127,127,30,9,47
1584990422.6453428,-4,-1,3,8,-41,50,-2,38
1584990422.6453428,1,-5,-8,14,127,-80,-13,-9
1584990422.6542733,3,-2,0,-12,-28,38,32,-69
1584990422.6542733,12,1,6,55,-25,-40,-18,70
1584990422.6693468,3,1,-2,-14,-53,-30,3,24
1584990422.6693468,6,-1,1,7,16,-6,2,8
1584990422.6712356,12,1,1,-1,4,9,25,23
1584990422.6712356,-6,2,-3,22,26,-26,-22,-42
1584990422.6916971,11,3,5,10,-20,-24,-10,-9
1584990422.6916971,-6,-4,2,-12,-7,-56,-9,-5
1584990422.6934996,-3,-2,1,-8,1,2,2,-10
1584990422.6934996,2,1,-1,3,2,-4,-2,0
1584990422.7055686,-4,0,-3,-9,-6,-1,0,-3
1584990422.7055686,-3,-5,-11,3,-53,-12,-4,9
1584990422.7142441,-8,-3,-1,-7,4,6,3,-15
1584990422.7142441,1,-1,2,18,5,1,-6,3
1584990422.729656,-11,-3,-4,4,1,-3,9,-117
1584990422.729656,1,1,8,-1,-9,0,2,19
1584990422.7353272,0,-1,-16,-75,-69,-21,1,-4
1584990422.7353272,4,3,-2,1,13,19,6,-15
1584990422.751804,5,7,11,9,7,-54,-3,39
1584990422.751804,5,-4,-3,-11,-5,-2,2,1
1584990422.753167,1,-2,-4,-4,-9,-19,1,4
1584990422.753167,-5,-1,-4,-3,-3,-1,-5,-2
1584990422.765366,-1,1,-2,-2,1,1,-3,10
1584990422.765366,1,-3,1,-2,-1,0,1,-3
1584990422.7742033,1,-2,0,0,-1,-4,0,3
1584990422.7742033,-2,-1,-1,0,-3,-2,5,-5
1584990422.789291,3,2,-2,0,-1,1,0,-1
1584990422.789291,-5,-2,-1,2,2,-4,-1,-3
1584990422.791003,4,-1,-1,-3,3,1,-2,-1
1584990422.791003,-2,1,-1,-4,0,-1,0,-3
1584990422.811815,2,-4,-1,-1,5,0,2,3
1584990422.811815,17,-1,2,1,4,2,2,4
1584990422.8136446,11,6,5,-1,-1,0,5,5
1584990422.8136446,-57,-8,-5,0,2,-3,-5,-14
1584990422.825832,5,1,-5,-1,2,0,-2,-6
1584990422.825832,13,0,4,-2,0,2,-3,4
1584990422.8403065,10,3,4,-1,3,0,2,5
1584990422.8403065,9,0,1,1,-2,-4,0,3
1584990422.8505528,5,-7,-8,-5,-1,1,0,-4
1584990422.8505528,13,-5,-2,1,-2,1,1,4
1584990422.852225,7,6,8,0,-3,0,-1,1
1584990422.852225,-49,-5,-3,0,-1,-1,-2,-19
1584990422.871992,-8,2,-4,2,0,-2,0,-1
1584990422.871992,-7,-2,7,2,2,-3,-1,-6
1584990422.8742814,7,-4,-1,0,1,2,-2,-2
1584990422.8742814,21,4,-5,-2,-3,-3,-7,-5
1584990422.885619,24,6,1,-6,-4,-1,1,6
1584990422.885619,-23,-6,5,2,2,2,3,0
1584990422.8942072,-42,-11,-11,-5,-2,-1,-7,-34
1584990422.8942072,6,12,2,3,-3,-1,-1,14
1584990422.9092724,26,5,1,5,-5,-2,3,16
1584990422.9092724,20,-4,0,-3,-1,-1,-3,2
1584990422.9110587,-42,-8,0,0,-3,-6,-5,-22
1584990422.9110587,-6,2,-2,0,-4,-5,0,-6
1584990422.931803,-3,-20,-1,-6,-1,-1,0,6
1584990422.931803,-24,-7,-2,1,1,-1,0,-4
1584990422.9330988,9,-4,-5,0,3,0,4,10
1584990422.9330988,48,9,1,1,1,1,4,17
1584990422.9453824,-112,-19,-8,-10,-2,-2,-5,-26
1584990422.9453824,8,0,-2,0,-3,-1,-1,-9
1584990422.9542127,6,-5,0,0,0,1,-1,-5
1584990422.9542127,7,8,0,0,-1,-2,2,2
1584990422.9693198,29,4,1,1,1,2,2,2
1584990422.9693198,53,8,4,3,1,1,-4,18
1584990422.9712608,-35,-11,3,-4,1,5,7,10
1584990422.9712608,-103,-19,-3,-1,0,-1,-6,-15
1584990422.9917939,-23,-14,-7,-1,2,2,-1,0
1584990422.9917939,0,10,-1,-3,-1,0,5,-22
1584990422.9935904,20,3,-2,0,1,-3,-5,-30
1584990422.9935904,67,3,9,1,0,-3,3,13
1584990423.0053887,-81,-7,-5,-1,-3,2,2,4
1584990423.0053887,18,17,-1,-1,-1,1,1,1
1584990423.0142207,53,4,-1,1,-3,3,5,30
1584990423.0142207,-2,11,16,7,1,-1,6,15
1584990423.0292645,-124,-20,9,-1,-3,-2,-9,-40
1584990423.0292645,46,5,-15,-7,-3,-3,-8,-19
1584990423.0305562,89,12,0,2,3,2,6,41
1584990423.0305562,-75,-25,-2,-1,3,-5,-6,-34
1584990423.0518076,55,18,4,3,0,4,11,25
1584990423.0518076,-6,2,-1,3,-4,-5,-2,-11
1584990423.0531173,-31,13,11,-1,0,0,15,23
1584990423.0531173,11,-23,-13,-7,-7,-7,-25,4
1584990423.0742571,47,17,-7,-3,0,1,6,20
1584990423.0742571,5,-8,8,-5,-3,-11,-25,-78
1584990423.0764997,13,-11,-16,-10,1,-4,-1,-3
1584990423.0764997,-30,-5,3,10,3,2,3,33
1584990423.088584,-25,13,0,-2,2,3,11,12
1584990423.088584,-4,-4,-1,0,0,-4,-27,-42
1584990423.0953443,14,2,-2,-6,3,2,5,17
1584990423.0953443,17,1,1,4,6,5,6,15
1584990423.1118083,-17,6,7,-6,4,5,8,16
1584990423.1118083,-44,-10,-7,-3,-9,-7,-24,-68
1584990423.1135502,62,-9,-6,-2,-2,-4,-3,13
1584990423.1135502,-29,5,2,0,-6,0,5,9
1584990423.1253688,-5,2,0,3,1,3,7,-50
1584990423.1253688,-76,-8,-3,0,0,3,3,-7
1584990423.1341538,55,12,4,2,2,5,19,26
1584990423.1341538,47,3,0,0,2,-2,-14,34
1584990423.1498096,-60,-10,-3,-5,1,-1,-5,-54
1584990423.1498096,16,7,3,2,1,5,17,31
1584990423.1573393,3,4,6,1,1,0,-1,12
1584990423.1573393,18,4,-1,2,-2,-1,6,2
1584990423.1717966,0,-11,-8,-6,-5,-2,-5,-12
1584990423.1717966,19,6,5,2,0,-2,1,23
1584990423.1733208,16,-1,6,0,3,1,3,8
1584990423.1733208,-34,0,-1,6,-3,-5,-3,-27
1584990423.185806,40,5,2,5,-3,-1,1,12
1584990423.185806,11,-1,-1,-3,1,2,4,-10
1584990423.1942017,-128,-12,-3,4,-1,0,-10,-26
1584990423.1942017,40,1,-3,0,0,1,1,0
1584990423.2078307,30,4,3,-4,1,1,3,16
1584990423.2078307,-17,-4,-3,-12,-3,-3,-9,-48
1584990423.2171807,16,6,2,1,3,-5,-5,21
1584990423.2171807,-3,-2,3,5,0,2,3,21
1584990423.2316751,-5,-8,-4,-8,1,0,-2,-6
1584990423.2316751,25,6,5,-4,-2,3,3,22
1584990423.2330492,-46,0,-2,0,1,1,4,-40
1584990423.2330492,7,0,-4,2,-1,-2,-9,-16
1584990423.2541747,-21,-1,1,-1,-2,-5,-2,1
1584990423.2541747,-47,-14,-6,-1,0,-1,-10,-50
1584990423.2555528,35,3,-3,-2,-3,-3,-3,1
1584990423.2555528,-2,-3,-2,1,1,1,9,26
1584990423.267861,-7,-1,-3,-1,1,0,6,-6
1584990423.267861,3,-2,-3,-2,0,-1,-10,-4
1584990423.276711,6,-5,-3,-3,-4,-4,-2,11
1584990423.276711,2,6,1,6,-1,0,2,3
1584990423.2916973,-6,-7,-3,-9,-4,2,-2,17
1584990423.2916973,-50,-3,2,9,2,3,-1,-26
1584990423.2937603,59,0,1,6,2,3,2,70
1584990423.2937603,-38,0,0,3,2,-4,-11,-42
1584990423.3146906,13,-2,-4,0,2,-6,-7,2
1584990423.3146906,10,2,-4,-9,-1,0,1,1
1584990423.3161464,19,3,5,9,-4,3,9,33
1584990423.3161464,-94,-11,-2,-2,-4,-5,0,-42
1584990423.329347,8,4,1,2,-4,-3,4,25
1584990423.329347,26,3,-2,4,-5,-3,2,14
1584990423.330705,2,4,-4,1,-1,4,8,9
1584990423.330705,-1,0,-1,1,-1,1,-4,3
1584990423.351686,13,1,1,-3,1,-4,-2,1
1584990423.351686,-21,-6,-7,-3,1,3,0,-3
1584990423.3531568,-6,-1,9,2,-3,1,4,15
1584990423.3531568,8,0,-6,1,-1,0,-3,-10
1584990423.374195,23,9,3,3,2,1,7,19
1584990423.374195,-40,-6,-2,-4,-3,-4,-7,-28
1584990423.3762949,-1,0,1,-1,-1,-3,-3,-20
1584990423.3762949,9,2,-3,-2,3,0,4,15
1584990423.3893404,27,-1,1,-2,2,1,-4,10
1584990423.3893404,-16,-3,3,4,-3,2,5,0
1584990423.3911517,28,-7,-7,1,-1,-5,-8,6
1584990423.3911517,-75,-3,-6,-2,-3,-5,-22,-59
1584990423.4118214,17,3,1,-14,-1,4,10,14
1584990423.4118214,-12,4,11,7,2,-3,-13,-17
1584990423.4136288,48,1,-2,-4,-1,-1,-7,44
1584990423.4136288,-69,-8,-2,10,-1,-1,-1,-21
1584990423.434872,27,-1,-4,-3,-7,-1,1,9
1584990423.434872,3,-12,-2,0,1,1,-1,-17
1584990423.4365864,-1,1,-6,-4,1,0,-1,9
1584990423.4365864,-3,5,3,7,1,-1,3,22
1584990423.4485927,5,2,-1,-1,1,-1,1,-24
1584990423.4485927,-12,-1,8,3,1,0,1,4
1584990423.4553912,1,-2,-1,-7,1,-1,2,-6
1584990423.4553912,-2,4,-1,2,1,0,-5,3
1584990423.4719782,18,0,1,-3,2,-3,-5,-6
1584990423.4719782,-11,-11,4,4,-1,3,-4,1
1584990423.474095,-18,0,-4,-3,2,-4,-4,-19
1584990423.474095,-6,3,-1,-5,-3,-2,3,18
1584990423.4942372,32,4,4,2,-3,-1,0,13
1584990423.4942372,18,-2,0,4,1,-1,4,-51
1584990423.4963787,-52,-9,-6,-9,-3,-5,-16,-4
1584990423.4963787,26,-3,-3,-2,-1,-1,-5,-3
1584990423.5078616,-17,1,0,2,-2,1,4,11
1584990423.5078616,33,2,0,-12,-2,-3,-3,-9
1584990423.5167673,-32,0,1,6,4,0,4,33
1584990423.5167673,13,0,-1,0,-3,0,7,-10
1584990423.5316484,16,-2,1,0,3,0,-8,5
1584990423.5316484,-22,0,-2,0,3,2,-3,-16
1584990423.5330622,-10,-9,0,1,-1,-2,0,22
1584990423.5330622,11,11,4,3,-4,-4,-4,-9
1584990423.5541484,16,-2,0,0,-1,1,4,41
1584990423.5541484,-12,-7,-2,-1,-1,1,0,-12
1584990423.5555215,-33,-7,-5,-5,-3,-2,-4,-23
1584990423.5555215,8,6,-2,2,-1,1,2,6
1584990423.5678215,20,7,2,-4,0,0,-3,13
1584990423.5678215,2,-2,-1,-3,1,-5,2,-9
1584990423.5767233,21,0,0,0,1,-2,-4,8
1584990423.5767233,-50,-1,-1,-4,-1,-2,1,-4
1584990423.5916562,20,-1,1,4,2,1,2,11
1584990423.5916562,-11,-4,-1,-4,-2,1,-1,-12
1584990423.5934443,32,0,-3,-3,-3,0,-1,20
1584990423.5934443,-66,-11,-2,-4,-1,-5,-12,-74
1584990423.614188,-7,4,1,4,2,0,1,-2
1584990423.614188,-24,-3,-2,1,4,1,-2,-6
1584990423.6155596,-4,-7,-7,-12,-3,-2,-4,17
1584990423.6155596,55,-3,-2,3,-3,0,-2,13
1584990423.6278067,-23,10,2,-9,0,2,6,-32
1584990423.6278067,12,-5,3,4,2,1,2,15
1584990423.6367433,10,14,7,-3,2,1,12,22
1584990423.6367433,-14,-7,-3,2,-1,-4,-6,-14
1584990423.6593304,-1,0,-5,-4,0,-5,-5,1
1584990423.6593304,10,-4,1,-1,1,-4,-1,-7
1584990423.661098,1,2,-4,2,2,2,2,8
1584990423.661098,4,2,0,2,-3,0,-1,0
1584990423.6741629,-1,1,-2,2,2,-1,-2,1
1584990423.6741629,-1,-5,0,-1,-1,-1,-1,0
1584990423.6762114,5,3,0,1,-3,1,-1,1
1584990423.6762114,2,-1,-4,2,-3,0,-1,1
1584990423.687833,12,-2,-4,0,1,-2,15,27
1584990423.687833,-7,-4,-3,-1,-2,-5,-10,-56
1584990423.7041922,-80,-6,-1,-2,-1,2,1,-6
1584990423.7041922,31,3,0,2,-3,0,-4,12
1584990423.7116485,9,1,0,-2,-3,-1,6,4
1584990423.7116485,13,-4,-2,-2,-2,0,-3,-31
1584990423.713264,15,3,-2,-4,-1,1,1,8
1584990423.713264,-3,5,3,4,-1,0,3,-22
1584990423.7341723,-3,-3,3,5,1,0,3,10
1584990423.7341723,13,0,-2,6,-1,0,1,3
1584990423.7355697,-6,-1,-7,-8,1,0,-7,-5
1584990423.7355697,-8,-4,-3,-3,-3,-5,-1,0
1584990423.747831,-4,-7,-2,-3,5,2,4,4
1584990423.747831,-5,-3,-2,-2,-2,1,1,-1
1584990423.7567265,-2,11,2,2,0,-3,1,10
1584990423.7567265,4,-7,-3,-1,-1,0,-3,-18
1584990423.771819,1,-1,6,1,2,2,1,-11
1584990423.771819,2,0,2,2,3,5,0,17
1584990423.7739477,0,-3,-2,-3,3,-1,-9,25
1584990423.7739477,3,4,-3,-1,-9,-16,-4,8
1584990423.794166,-15,-8,0,0,-6,-16,-10,-29
1584990423.794166,11,-5,-3,5,-10,4,1,-6
1584990423.7963665,5,3,4,9,7,-10,4,2
1584990423.7963665,-13,6,0,1,-3,4,-13,-62
1584990423.8078275,-6,-8,2,-1,-8,-1,2,10
1584990423.8078275,-2,-1,0,-1,14,-1,-12,-47
1584990423.816771,-7,0,-1,-6,-13,0,9,19
1584990423.816771,-3,-10,-8,-1,2,-10,1,-7
1584990423.8316777,-6,5,1,0,-1,1,3,5
1584990423.8316777,10,8,4,2,-2,-1,1,0
1584990423.8331065,10,8,-4,-1,-7,-4,-4,-15
1584990423.8331065,-12,3,3,4,-3,2,-1,-1
1584990423.8542018,3,-5,-2,-9,-2,2,4,5
1584990423.8542018,19,-1,-1,3,5,-1,0,-6
1584990423.855584,19,6,2,1,3,21,7,-7
1584990423.855584,-66,-6,-3,-3,-4,-35,-23,-30
1584990423.8678427,1,-1,0,2,-6,9,-4,2
1584990423.8678427,9,1,0,3,1,-17,11,48
1584990423.8767405,9,0,-1,1,-1,0,-4,-22
1584990423.8767405,-10,-1,0,-9,-58,0,-4,-28
1584990423.891611,2,2,4,8,47,-11,-7,-4
1584990423.891611,-2,-3,-2,-1,-6,-1,-4,5
1584990423.893148,-1,-3,-1,-2,1,33,10,2
1584990423.893148,-4,-3,-5,-7,-14,-49,-14,-13
1584990423.914676,1,-3,-1,1,-3,-2,-12,-3
1584990423.914676,2,-1,-5,-5,-4,0,-4,19
1584990423.9163592,7,10,7,3,2,11,-28,23
1584990423.9163592,-3,0,0,-7,-3,-3,0,-4
1584990423.9278426,4,-1,2,1,-1,-3,14,-1
1584990423.9278426,-2,-8,-4,-4,-3,1,16,-11
1584990423.9369063,0,3,1,-6,11,4,1,1
1584990423.9369063,-3,-4,-3,-3,-2,0,12,-7
1584990423.9516957,-8,-4,-3,-4,-3,4,41,-33
1584990423.9516957,-9,-8,-4,-4,-5,-11,-11,-9
1584990423.9530764,21,8,7,7,-5,2,-12,90
1584990423.9530764,11,8,0,1,1,-1,1,-13
1584990423.981687,-6,-2,-4,-5,-26,7,31,16
1584990423.981687,-12,2,8,4,10,11,-3,-22
1584990423.9835455,8,-2,-6,-4,-14,10,15,1
1584990423.9835455,4,-1,-3,1,3,-12,-12,-11
1584990423.9967556,-15,-3,0,11,-68,-31,5,-34
1584990423.9967556,3,0,-9,-20,115,17,-15,-12
1584990423.9980702,3,2,-1,-24,37,26,14,-8
1584990423.9980702,-2,6,0,-7,77,26,4,-11
1584990424.0110178,13,2,3,10,40,10,-58,56
1584990424.0110178,2,-4,-10,-29,-19,4,1,19
1584990424.0178094,-7,-8,-2,12,-17,5,4,-2
1584990424.0178094,-3,8,2,3,-128,-26,21,-42
1584990424.0345557,16,20,15,-6,90,11,50,11
1584990424.0345557,-16,-13,-7,-39,-120,2,16,33
1584990424.0485954,-17,-16,-7,1,11,53,13,-51
1584990424.0485954,2,-2,2,15,-4,-48,-26,-7
1584990424.0497534,-16,-5,-3,10,-6,-1,-1,-49
1584990424.0497534,31,29,14,22,19,49,-46,127
1584990424.0567348,29,7,-4,85,-11,-12,7,25
1584990424.0567348,1,7,6,-101,-6,36,14,-45
1584990424.0791736,-21,-5,-2,-1,88,46,28,42
1584990424.0791736,42,1,0,38,43,-69,-34,21
1584990424.080538,0,-7,-5,24,-128,35,60,41
1584990424.080538,-8,0,6,-38,-126,-24,-4,-91
1584990424.093483,82,35,32,127,127,127,41,-65
1584990424.093483,-128,-12,2,-128,107,1,-23,43
1584990424.0947344,77,-25,-19,124,-60,33,4,18
1584990424.0947344,53,2,-2,6,-128,38,42,-77
1584990424.1242185,5,15,31,-9,-110,23,7,24
1584990424.1242185,5,2,-6,-39,127,76,73,-42
1584990424.1255357,24,7,7,35,-35,51,-35,40
1584990424.1255357,-52,-18,-17,-128,127,-61,-4,-40
1584990424.1393566,-10,-4,6,12,-126,-49,-28,0
1584990424.1393566,28,19,13,16,73,63,-121,127
1584990424.1407554,-11,5,-4,-96,-99,-128,-52,-23
1584990424.1407554,-1,3,-1,-17,-102,127,-61,22
1584990424.1534915,-13,-3,-5,16,-20,-8,-5,-55
1584990424.1534915,-20,5,10,70,127,127,-36,-128
1584990424.1548004,13,12,2,11,119,26,2,-71
1584990424.1548004,-22,-11,3,100,0,28,16,95
1584990424.176081,50,8,2,-128,-35,-3,-23,127
1584990424.176081,-15,-9,-4,-85,-39,-128,-35,2
1584990424.177402,-9,-7,-8,8,127,-35,41,-11
1584990424.177402,-9,-12,-4,127,48,-39,-89,13
1584990424.1991751,15,16,4,33,-128,-4,36,4
1584990424.1991751,-2,-8,-16,7,65,112,11,-61
1584990424.2000833,11,-8,-18,-128,-53,-76,-46,28
1584990424.2000833,-7,12,27,127,18,9,57,-89
1584990424.2139428,-31,-9,8,127,-30,-50,-59,127
1584990424.2139428,11,18,4,-19,127,127,44,0
1584990424.2148213,2,-1,2,106,119,-22,36,26
1584990424.2148213,-26,-15,-21,98,-128,-128,32,-48
1584990424.2360363,-8,-1,-2,-26,127,10,32,120
1584990424.2360363,19,0,19,104,-128,-117,-42,86
1584990424.237486,6,-1,-23,-128,-59,79,6,-33
1584990424.237486,12,10,14,-1,-108,-19,-74,80
1584990424.2666042,3,11,15,44,8,25,7,-46
1584990424.2666042,14,-8,-7,-128,65,-128,6,20
1584990424.2674072,27,6,7,22,-11,12,28,59
1584990424.2674072,14,6,7,-11,-128,-20,26,-82
1584990424.2731998,-26,-4,-3,-38,1,-8,12,-47
1584990424.2731998,-35,-15,-4,-61,127,21,-39,-128
1584990424.2809513,38,18,17,39,5,11,1,80
1584990424.2809513,-14,-3,-5,26,-113,-118,-52,0
1584990424.2960684,-16,-14,-15,-120,52,34,15,-63
1584990424.2960684,17,3,8,61,-70,2,-10,51
1584990424.2974422,-3,1,-7,127,-128,-128,-59,68
1584990424.2974422,-11,-4,4,-35,127,-51,32,81
1584990424.3191574,9,-3,-1,-87,-46,-36,23,-33
1584990424.3191574,2,9,15,97,-16,6,44,52
1584990424.320026,1,3,-5,-128,-120,-49,7,127
1584990424.320026,-20,-17,-10,127,127,127,12,-128
1584990424.33477,-2,-5,-2,13,9,21,-8,-22
1584990424.33477,-10,1,2,2,-4,-24,-24,7
1584990424.3358338,8,4,2,-10,-84,38,3,15
1584990424.3358338,11,-5,-19,57,117,30,-13,0
1584990424.356104,30,3,10,60,-59,-54,-51,96
1584990424.356104,-53,-19,-26,39,-45,-49,-43,-45
1584990424.3575487,8,-15,1,24,6,35,41,-66
1584990424.3575487,1,10,1,6,-8,26,16,-3
1584990424.3709664,9,6,17,-27,6,-4,6,12
1584990424.3709664,38,6,-10,-36,124,12,35,-128
1584990424.3722568,-4,-1,0,33,43,-32,15,72
1584990424.3722568,-107,-9,-2,69,-116,-128,-23,-75
1584990424.393929,18,3,-7,-128,88,117,-23,41
1584990424.393929,23,8,15,33,108,-26,44,5
1584990424.4010177,20,3,-8,-31,127,8,10,27
1584990424.4010177,24,2,-5,-18,-21,-16,-5,-31
1584990424.416095,10,5,9,55,-118,54,32,28
1584990424.416095,-1,7,4,-128,-77,69,-7,-6
1584990424.4176092,-4,-5,1,94,-102,8,-19,-42
1584990424.4176092,20,12,3,-10,-22,15,-13,60
1584990424.4309564,0,2,4,3,-1,6,20,-13
1584990424.4309564,-3,1,-2,-8,-6,4,-12,-44
1584990424.4318352,-3,1,5,22,-33,-23,-76,39
1584990424.4318352,-3,-2,-5,-19,-1,55,18,-19
1584990424.4534261,-16,-6,-3,-8,-12,118,-6,-53
1584990424.4534261,-4,-3,4,3,-1,38,10,-19
1584990424.45478,3,5,2,-63,-8,-1,-3,-3
1584990424.45478,2,5,7,-10,-16,21,2,-2
1584990424.4759874,10,2,7,4,2,-9,15,61
1584990424.4759874,4,-3,2,-2,15,3,-13,-71
1584990424.4773188,19,5,1,55,-30,-36,8,121
1584990424.4773188,-9,-2,1,-7,-14,4,-6,-115
1584990424.5156956,-14,-8,-7,4,-24,-4,-3,19
1584990424.5156956,0,0,0,-7,61,8,3,0
1584990424.5171614,-3,3,1,0,-6,-6,-9,-5
1584990424.5171614,1,2,1,5,20,0,-25,19
1584990424.5179815,1,-3,-4,-19,-20,-5,-2,0
1584990424.5179815,-1,-2,-5,7,-17,-4,-13,-3
1584990424.5216994,0,0,-1,34,20,4,-3,-6
1584990424.5216994,5,1,4,9,-4,21,4,14
1584990424.5360649,-1,-8,-4,-3,-3,0,-2,-1
1584990424.5360649,-2,-2,-1,-13,-6,-1,0,-3
1584990424.5374389,3,4,0,0,-5,-3,-2,0
1584990424.5374389,-3,-1,0,2,-1,-1,-3,-2
1584990424.5508814,-3,-1,-1,0,-1,-1,-1,2
1584990424.5508814,-1,-4,-4,-3,-1,1,0,1
1584990424.5516617,1,1,-4,-3,1,0,0,0
1584990424.5516617,1,-1,-4,1,0,-5,-4,-1
1584990424.5734932,0,-5,-2,0,0,2,0,-3
1584990424.5734932,4,3,4,3,1,-1,2,0
1584990424.5743368,0,1,5,0,-1,0,0,3
1584990424.5743368,5,0,-2,-1,-2,-1,1,-1
1584990424.5960016,4,-1,1,-3,0,-1,-3,0
1584990424.5960016,-15,0,3,4,0,0,-3,-1
1584990424.5968742,-1,-2,-1,-1,-1,0,-2,-3
1584990424.5968742,42,5,0,-1,-1,-3,1,15
1584990424.6266458,27,-1,-3,-1,0,2,2,13
1584990424.6266458,-116,-19,-3,-5,-3,-4,-13,-39
1584990424.6280673,-32,2,4,1,-2,-2,-7,-22
1584990424.6280673,29,10,7,3,1,3,4,12
1584990424.6347873,28,3,-1,0,2,2,3,10
1584990424.6347873,3,-2,0,-3,-1,-3,4,9
1584990424.6358545,20,2,1,1,1,0,0,9
1584990424.6358545,-7,-2,-4,0,2,-1,-2,1
1584990424.656009,-9,-6,-8,-2,-2,-3,-2,-13
1584990424.656009,-11,-2,-7,-2,0,0,2,6
1584990424.6573944,7,-9,-1,0,2,-3,-2,4
1584990424.6573944,-27,3,9,0,-6,-2,-7,-19
1584990424.6791236,21,17,8,2,2,3,4,8
1584990424.6791236,-21,0,-4,-4,1,0,1,1
1584990424.680553,26,-3,-11,0,2,2,-1,2
1584990424.680553,5,-3,-4,-4,-1,-2,0,6
1584990424.6934245,41,1,8,1,0,1,1,13
1584990424.6934245,-52,-18,-14,-4,-2,2,-1,-13
1584990424.6946192,44,16,-1,-3,-3,-2,0,15
1584990424.6946192,33,2,6,1,-4,-3,0,-4
1584990424.7160466,-58,-10,7,1,1,-1,-6,-18
1584990424.7160466,-24,2,0,-4,-5,-6,-5,-2
1584990424.7174225,-1,-23,-15,-7,-1,3,-3,-7
1584990424.7174225,-54,4,-8,-2,-3,0,0,-12
1584990424.7392464,71,17,5,-1,1,0,7,18
1584990424.7392464,45,16,2,-4,-4,-1,0,32
1584990424.7406132,40,-14,7,2,4,4,8,33
1584990424.7406132,-128,-34,-9,-3,-3,-2,-20,-128
1584990424.7534947,2,5,1,-4,-4,-1,-4,7
1584990424.7534947,2,9,-1,1,-1,1,7,26
1584990424.7543821,32,10,3,4,-3,0,5,25
1584990424.7543821,33,12,-2,0,0,0,5,7
1584990424.7759438,13,-6,-5,1,-1,0,-4,-7
1584990424.7759438,-10,2,6,1,2,1,3,-4
1584990424.7772355,15,4,-2,2,3,3,4,26
1584990424.7772355,-23,0,2,-2,-2,-2,-5,-25
1584990424.799167,32,-6,-10,-5,-6,-2,-5,-17
1584990424.799167,-16,20,9,4,0,-5,1,2
1584990424.800061,-7,-4,-6,-2,1,0,-2,-6
1584990424.800061,-6,-7,5,-3,2,-2,-5,5
1584990424.8139057,-33,-18,-6,3,6,7,18,31
1584990424.8139057,66,13,-1,0,-1,0,2,-2
1584990424.8152444,-45,-26,-13,-3,-3,-3,0,-47
1584990424.8152444,57,20,9,-2,-2,0,-3,36
1584990424.8360848,-17,-3,-4,-3,-4,-2,-1,18
1584990424.8360848,-6,-10,-13,-6,-6,-7,-12,-22
1584990424.8374615,41,35,15,5,1,1,7,31
1584990424.8374615,-14,-1,8,5,5,5,5,3
1584990424.859229,84,9,-3,-5,2,4,7,50
1584990424.859229,-66,-15,-7,-7,-2,-7,-11,-23
1584990424.8600907,-79,-8,-6,-1,-3,-1,10,-29
1584990424.8600907,32,7,2,0,0,2,-6,19
1584990424.8732045,123,14,1,-3,-3,-2,7,55
1584990424.8732045,30,-6,-1,3,1,5,5,25
1584990424.8809655,-12,-7,-4,-1,0,0,0,-27
1584990424.8809655,-68,-4,2,1,1,1,3,13
1584990424.8960814,20,10,3,2,1,3,1,-6
1584990424.8960814,-1,4,0,1,0,-1,-2,13
1584990424.896922,-31,-13,-10,-8,-5,-1,-5,-10
1584990424.896922,25,2,-3,-1,-2,-4,-2,-6
1584990424.9197984,17,3,4,2,-1,-1,4,5
1584990424.9197984,27,4,1,0,-1,-2,0,7
1584990424.9210863,-15,5,1,0,-1,4,3,9
1584990424.9210863,-9,-2,0,1,-2,0,0,-7
1584990424.9334512,9,-6,-3,-2,2,-1,-1,9
1584990424.9334512,74,16,4,1,1,2,-1,-1
1584990424.9343288,-74,-13,-8,-4,-5,-5,-9,-20
1584990424.9343288,-22,-4,-1,-1,3,0,1,17
1584990424.9560652,75,-8,1,-1,2,4,4,4
1584990424.9560652,-128,0,4,-4,-2,-4,-8,-56
1584990424.9577374,22,0,4,6,0,-1,-6,-35
1584990424.9577374,34,-1,-9,-1,-5,-1,4,36
1584990424.9784384,3,-4,-3,-4,0,-2,-1,-4
1584990424.9784384,6,-7,-4,-1,0,0,-6,-23
1584990424.9797244,-18,-5,-5,0,-3,-3,-1,3
1584990424.9797244,16,9,8,1,1,0,3,11
1584990424.9934254,-59,-5,3,-1,1,1,0,-7
1584990424.9934254,45,0,-3,-1,-1,-3,-9,10
1584990424.9946826,28,2,-3,-2,1,0,0,-14
1584990424.9946826,-103,-20,-10,-3,-5,-3,-6,-8
1584990425.0160232,29,5,2,0,-1,1,3,14
1584990425.0160232,17,7,0,0,0,0,3,30
1584990425.017365,19,4,0,1,1,1,4,-12
1584990425.017365,-74,-11,-1,-5,-2,-1,-7,-21
1584990425.0385175,-24,2,-1,0,-1,3,1,-22
1584990425.0385175,48,4,1,0,0,1,-5,-9
1584990425.0401876,-52,-8,-3,-2,0,-2,-4,-12
1584990425.0401876,17,4,2,0,1,2,5,19
1584990425.0534077,3,-1,-2,0,-1,4,1,-1
1584990425.0534077,-12,11,7,-3,-1,-2,-7,-2
1584990425.0542712,29,0,-5,-2,-1,-1,-2,12
1584990425.0542712,25,5,-3,-4,2,0,1,10
1584990425.0760164,-69,-17,-5,-1,1,0,-4,-24
1584990425.0760164,-11,0,0,1,-1,-1,1,5
1584990425.0773432,0,4,3,0,3,-1,0,13
1584990425.0773432,28,4,-1,-2,-1,-2,2,14
1584990425.1157427,-6,-10,-4,-7,0,-4,-8,-35
1584990425.1157427,-2,-5,-6,-3,-1,-4,-5,13
1584990425.1171987,10,8,3,2,2,0,1,4
1584990425.1171987,-6,-1,1,-1,-4,-3,-3,1
1584990425.1180012,-53,-6,0,-1,-4,-1,-3,-42
1584990425.1180012,-10,1,-3,2,0,0,0,9
1584990425.1217337,33,-1,-5,-2,2,2,2,13
1584990425.1217337,-8,3,2,1,2,2,2,1
1584990425.1360552,-3,3,3,2,3,-1,2,14
1584990425.1360552,-19,-9,-3,1,-2,-2,-1,-28
1584990425.1375344,31,-3,-4,-5,-2,-1,-1,-6
1584990425.1375344,0,-5,-1,-2,0,0,-1,0
1584990425.1583946,-8,5,4,3,-3,1,5,19
1584990425.1583946,-13,-5,-3,-3,-3,-3,-4,-27
1584990425.1594462,32,-1,-4,-2,0,2,2,-11
1584990425.1594462,12,4,-1,-4,0,-2,-1,23
1584990425.1734118,1,-7,-3,0,0,0,-3,-23
1584990425.1734118,13,-1,-4,2,-1,-1,-2,-4
1584990425.174492,-15,3,1,-1,1,-1,3,21
1584990425.174492,20,3,2,-2,-4,2,0,-11
1584990425.1963105,-8,-6,-4,-2,-1,1,-3,-17
1584990425.1963105,25,8,0,2,-1,3,2,29
1584990425.1973886,-13,-5,-5,-4,1,0,-7,-27
1584990425.1973886,-35,-2,2,2,-1,2,-2,-4
1584990425.2186544,31,3,6,3,-2,-3,1,6
1584990425.2186544,20,1,0,-2,2,-1,-3,1
1584990425.223631,-15,-5,-4,-2,3,-2,2,2
1584990425.223631,22,5,0,-3,-3,-3,1,15
1584990425.2334316,-8,1,-1,-1,-2,1,1,-8
1584990425.2334316,-38,-5,-5,1,-3,0,3,-6
1584990425.2342627,29,-4,-4,-2,-2,2,-1,5
1584990425.2342627,35,9,9,2,0,0,0,-3
