timestamp,emg1,emg2,emg3,emg4,emg5,emg6,emg7,emg8
1584990510.086088,0,-1,1,-1,1,-1,0,-3
1584990510.086088,-1,-4,-1,-2,-2,2,-1,1
1584990510.0880756,-2,-1,0,0,-2,1,0,2
1584990510.0880756,-1,2,2,-1,-3,0,-2,1
1584990510.1010845,1,-1,2,1,1,1,0,-5
1584990510.1010845,-3,-1,-2,1,1,1,1,1
1584990510.1025026,0,-2,-1,-1,2,1,-3,-1
1584990510.1025026,-1,1,-1,-1,0,1,-3,1
1584990510.1235914,-2,-3,2,0,0,0,0,0
1584990510.1235914,0,-1,0,-2,-2,-2,-2,0
1584990510.1250103,-1,-1,0,-2,-5,-3,3,1
1584990510.1250103,-1,0,-3,0,-2,1,2,-2
1584990510.1465704,0,-2,-1,0,-3,1,-1,-1
1584990510.1465704,2,-3,-2,-1,2,-3,-1,-1
1584990510.1522512,-1,-3,-2,-2,-1,1,-2,-3
1584990510.1522512,0,1,-1,-1,5,0,0,0
1584990510.1610816,-1,1,0,-1,2,2,0,1
1584990510.1610816,-1,-1,-1,0,-1,1,-3,1
1584990510.1630657,0,1,3,-1,-1,-1,0,0
1584990510.1630657,1,1,-1,1,0,-1,-1,2
1584990510.1835976,1,-1,-3,0,-6,0,-3,-1
1584990510.1835976,-2,2,1,0,-4,-2,0,-5
1584990510.1852777,2,-2,-4,0,0,0,2,0
1584990510.1852777,3,1,-2,2,-2,0,0,0
1584990510.2060924,-4,-1,0,0,-3,1,0,-2
1584990510.2060924,-2,1,-2,0,-1,-2,-4,0
1584990510.2077482,-2,-2,1,-1,2,2,1,-1
1584990510.2077482,-1,0,-3,-1,0,1,-3,-4
1584990510.2210498,0,0,-1,0,1,1,2,1
1584990510.2210498,0,-3,-3,0,-5,-4,-4,-2
1584990510.2231977,0,0,-1,1,-2,-2,1,0
1584990510.2231977,0,0,2,-3,-1,-1,1,0
1584990510.2435825,-1,0,0,2,-1,-2,-2,-3
1584990510.2435825,0,0,3,-1,2,-2,0,1
1584990510.24525,2,2,0,-2,0,2,1,-2
1584990510.24525,1,-1,-3,-3,-1,-1,-3,-2
1584990510.2665603,-3,-4,-1,-2,-3,0,-3,-3
1584990510.2665603,1,0,1,-3,1,-2,-2,0
1584990510.2679017,-1,-3,1,0,0,-1,-1,1
1584990510.2679017,-2,-1,1,-1,3,-2,0,-2
1584990510.2803822,1,2,1,0,0,0,1,1
1584990510.2803822,-4,2,0,2,1,-3,-2,-3
1584990510.2872121,0,-1,0,-1,-2,-3,-1,-1
1584990510.2872121,1,2,-1,-4,-3,-2,-2,-1
1584990510.3036664,1,-1,-1,-3,0,1,-1,0
1584990510.3036664,1,-2,1,-1,-1,0,0,-4
1584990510.3054574,0,-1,-3,-2,-4,-1,-1,-1
1584990510.3054574,1,0,-1,0,0,-1,-1,-1
1584990510.32607,-1,-2,-2,-1,2,-2,-3,1
1584990510.32607,-2,-1,1,1,0,0,-2,1
1584990510.3277357,-1,0,-3,0,-1,1,1,0
1584990510.3277357,-1,-3,0,1,0,0,0,-2
1584990510.3397138,0,-1,0,0,2,-2,-6,1
1584990510.3397138,-1,-2,-3,1,-1,1,1,1
1584990510.3485968,-1,0,2,1,-3,-1,1,-2
1584990510.3485968,1,1,-2,-1,-4,1,-1,2
1584990510.3635826,-1,-2,1,1,2,0,2,0
1584990510.3635826,-2,-1,-1,-1,-2,1,1,-2
1584990510.365299,-3,-3,-1,0,-1,-2,-3,-1
1584990510.365299,1,0,1,-2,-2,0,-1,1
1584990510.3861403,1,1,-1,-3,2,1,2,0
1584990510.3861403,-1,0,-3,-4,-3,-1,-5,0
1584990510.3877778,1,-2,0,0,-1,0,0,-3
1584990510.3877778,-2,-1,0,-1,-1,-1,-2,-3
1584990510.3997214,1,-1,2,-1,-6,-4,0,1
1584990510.3997214,1,-2,-3,-4,-1,-2,1,-1
1584990510.4085698,0,-2,0,3,-5,-2,-1,1
1584990510.4085698,-1,-1,-3,0,1,1,1,-2
1584990510.4239757,-3,0,2,-3,-2,-3,-2,-2
1584990510.4239757,0,-3,-3,-2,0,-1,-4,-2
1584990510.4256444,-1,-1,1,3,0,1,-1,0
1584990510.4256444,1,-1,-1,0,-1,-2,-2,-2
1584990510.4460874,1,1,1,1,-2,0,0,-1
1584990510.4460874,1,-1,-3,-2,0,-1,-1,-2
1584990510.4478037,1,1,-1,0,1,0,0,0
1584990510.4478037,-1,0,2,-2,1,-2,-4,0
1584990510.4597278,1,0,-1,-3,2,0,0,-2
1584990510.4597278,2,-1,-1,1,-1,-1,-2,-1
1584990510.4685938,-3,-1,2,-1,-2,-1,0,-1
1584990510.4685938,0,-1,-2,3,0,-1,0,-3
1584990510.4916844,-3,-1,-2,-1,-2,0,-1,-2
1584990510.4916844,-1,-2,-2,1,-1,1,-2,-1
1584990510.4933915,-2,-3,0,-1,-2,0,-1,-2
1584990510.4933915,0,-2,0,-2,0,1,-1,1
1584990510.5135474,0,-4,0,2,-4,-2,0,1
1584990510.5135474,0,0,-3,-1,-2,-1,0,2
1584990510.514929,-1,2,0,-3,1,1,3,0
1584990510.514929,-3,0,0,1,-1,-3,-3,0
1584990510.5203345,-2,0,-1,0,2,-1,1,-1
1584990510.5203345,-1,3,2,-3,-4,2,-3,-1
1584990510.5286138,2,-4,-3,-1,-1,0,1,-2
1584990510.5286138,2,0,-1,4,2,0,-1,-1
1584990510.5440092,-2,-2,-1,1,0,0,-2,-2
1584990510.5440092,0,-4,-2,-5,2,-3,-3,2
1584990510.5457346,-3,-2,-5,-1,0,1,2,-1
1584990510.5457346,-3,-1,-2,-1,-1,-1,-4,-1
1584990510.5658536,-2,1,1,1,2,0,0,0
1584990510.5658536,3,0,-1,1,-3,-1,0,-2
1584990510.5722597,-1,0,-1,-1,1,0,-1,-1
1584990510.5722597,1,1,1,-3,3,-1,-1,3
1584990510.5796876,0,1,1,1,-4,1,0,0
1584990510.5796876,2,2,0,-1,1,0,1,1
1584990510.5884829,-2,-1,1,-2,-2,-2,-3,1
1584990510.5884829,-3,1,-1,3,-5,-1,-1,-2
1584990510.6186721,0,0,-1,-1,-1,-3,-3,0
1584990510.6186721,0,0,-1,-2,-2,-1,0,-1
1584990510.620787,-3,-2,0,1,-2,-1,-2,-1
1584990510.620787,0,0,-2,0,-3,0,1,-3
1584990510.6260633,1,-4,1,-3,-1,-1,-1,-3
1584990510.6260633,0,-1,1,-3,0,0,1,-1
1584990510.6274679,0,-3,-3,1,-3,-2,-1,1
1584990510.6274679,0,2,-3,-1,-1,0,0,-1
1584990510.6396961,-1,0,0,-1,2,-3,-1,-3
1584990510.6396961,1,-2,1,0,0,-1,-2,0
1584990510.6485703,1,-3,0,0,-1,-2,1,1
1584990510.6485703,-3,0,2,1,-4,0,-1,2
1584990510.663562,0,-1,1,0,1,0,2,-1
1584990510.663562,-1,2,1,0,-1,0,-1,0
1584990510.665031,-3,-1,-4,-1,1,-2,-2,-2
1584990510.665031,-2,-3,-1,-2,-1,0,1,1
1584990510.6861086,0,0,0,-1,2,-1,1,0
1584990510.6861086,-3,-2,-1,0,2,-1,-3,0
1584990510.687728,1,-3,3,-1,3,-1,-1,2
1584990510.687728,-1,2,-2,1,-1,-2,1,0
1584990510.6996999,2,-1,1,-1,-4,0,2,-1
1584990510.6996999,-4,-3,-2,1,-1,0,-1,1
1584990510.7085915,-2,-3,1,1,-1,3,-1,2
1584990510.7085915,-2,3,-1,0,-1,-1,-1,-1
1584990510.72359,-2,0,0,1,0,-3,-5,1
1584990510.72359,-2,-1,-2,0,-4,-1,2,-2
1584990510.7252944,3,-1,0,1,0,1,1,0
1584990510.7252944,1,-2,0,-2,0,-1,-1,1
1584990510.7460766,0,-4,-2,-3,0,1,-1,2
1584990510.7460766,1,-1,-1,-1,0,-2,0,0
1584990510.7477288,-1,2,1,-2,1,-1,2,1
1584990510.7477288,-3,0,0,0,-4,-5,-2,-3
1584990510.7601492,0,3,-1,1,-2,0,-2,-1
1584990510.7601492,-1,-3,-1,1,0,1,-3,2
1584990510.768615,-4,2,-1,-1,-1,-3,-1,-3
1584990510.768615,-2,2,-1,-1,5,1,1,1
1584990510.783652,0,-1,-4,-4,0,1,-1,0
1584990510.783652,0,-1,0,-1,-3,0,-3,2
1584990510.7853527,1,-3,0,1,-2,0,-1,-1
1584990510.7853527,-1,1,1,-2,0,-3,0,-1
1584990510.806145,-1,1,1,0,-1,-5,2,-2
1584990510.806145,2,-2,-2,0,1,1,1,-1
1584990510.807848,-1,0,2,-1,-2,-2,0,-2
1584990510.807848,-1,0,1,-1,0,2,1,0
1584990510.819734,1,-2,-1,-3,-2,1,1,-1
1584990510.819734,-1,-4,-2,-1,-3,-1,-1,-1
1584990510.8285947,-1,1,3,1,-4,1,-1,-2
1584990510.8285947,-1,2,-1,-1,0,1,-3,1
1584990510.8435643,0,-3,-2,-1,5,2,-2,-2
1584990510.8435643,0,0,1,-1,-2,0,0,0
1584990510.845132,1,-3,-2,-1,-2,-3,-3,-1
1584990510.845132,1,1,2,0,1,1,2,-2
1584990510.8660886,-2,-4,0,0,-2,2,1,-2
1584990510.8660886,1,-2,0,-4,1,0,-1,0
1584990510.867477,0,-6,-4,-3,-1,-1,-1,-3
1584990510.867477,0,-1,-2,2,0,-4,-1,0
1584990510.879655,-1,-1,-1,1,-1,0,1,-5
1584990510.879655,-1,-1,0,-1,-2,1,1,1
1584990510.8885806,-1,-1,-1,0,-1,0,0,0
1584990510.8885806,-1,-1,0,-1,2,-2,0,1
1584990510.9036257,1,0,1,-1,1,1,0,-1
1584990510.9036257,0,-2,1,-1,-2,0,1,-1
1584990510.905298,1,-3,-1,-1,1,0,1,0
1584990510.905298,-4,-1,0,-1,-2,5,1,-3
1584990510.926,2,-3,0,0,-1,-3,-7,4
1584990510.926,-2,-3,-2,0,-2,1,0,0
1584990510.9276743,-1,0,-2,-2,3,0,-1,0
1584990510.9276743,1,-1,1,-2,1,1,-1,0
1584990510.9485781,-3,0,1,0,1,-1,0,0
1584990510.9485781,-1,0,2,-2,-3,0,4,-6
1584990510.9503312,0,-4,3,-4,-2,0,-1,0
1584990510.9503312,-2,-4,0,-1,-3,-1,3,0
1584990510.9635448,0,-2,-2,-3,-2,-3,1,1
1584990510.9635448,-2,-2,-2,1,1,0,1,-2
1584990510.964983,1,0,-2,1,0,3,2,-1
1584990510.964983,-3,-1,1,0,0,-1,-1,-1
1584990510.9861217,-1,2,2,-1,1,-2,-1,0
1584990510.9861217,2,-1,-1,2,1,-2,-4,-1
1584990510.9878156,-1,0,-2,-3,0,3,-4,-2
1584990510.9878156,1,0,-1,-2,3,-1,3,-3
1584990511.0085633,-1,0,-1,2,-3,-3,0,0
1584990511.0085633,1,-1,1,-3,0,1,-3,1
1584990511.010621,-1,-4,1,2,-1,-1,-2,-2
1584990511.010621,-1,0,-1,-2,0,2,0,-1
1584990511.0235379,-1,2,-3,-3,2,-1,-1,-1
1584990511.0235379,2,0,-1,2,0,-3,0,-3
1584990511.0251272,0,0,-1,0,1,-2,-1,-2
1584990511.0251272,0,-2,0,-2,-3,0,0,0
1584990511.0460553,1,1,1,-1,-3,1,0,1
1584990511.0460553,3,-1,2,0,0,1,-3,0
1584990511.0476983,2,1,-1,2,2,0,-1,0
1584990511.0476983,0,-2,0,1,1,0,-3,4
1584990511.0685847,-2,1,-1,1,3,-1,-1,0
1584990511.0685847,0,1,0,-2,-1,-4,-5,1
1584990511.0703578,1,0,-1,-2,1,2,-1,-2
1584990511.0703578,-1,-3,1,-2,3,-3,1,0
1584990511.0836112,-1,1,0,1,-1,0,-1,2
1584990511.0836112,-2,-3,-4,0,-4,2,1,0
1584990511.0854073,-2,0,0,1,-3,-2,-3,-2
1584990511.0854073,1,-1,-2,0,-2,0,-1,-1
1584990511.1057718,-1,-1,0,-3,0,1,-1,-2
1584990511.1057718,2,0,1,-3,-1,-1,0,-2
1584990511.112156,0,-2,1,-1,0,0,-4,-1
1584990511.112156,0,0,-5,-2,-3,-3,-1,1
1584990511.1286347,-1,0,-1,-1,-1,-2,1,5
1584990511.1286347,-1,-3,0,-1,0,1,2,1
1584990511.1301181,0,1,-1,0,-2,-2,1,1
1584990511.1301181,0,-1,3,1,-1,-3,-1,1
1584990511.1435297,-1,-2,-1,-3,0,-1,2,0
1584990511.1435297,1,-1,-1,-1,0,-1,-2,-1
1584990511.1459966,-2,-1,-3,-2,0,-2,-1,-1
1584990511.1459966,1,0,1,2,-2,-1,0,2
1584990511.1660244,-2,0,-1,0,-1,-5,-3,-3
1584990511.1660244,-2,-1,0,1,-3,-1,1,2
1584990511.16776,1,-1,0,-1,-3,0,-2,0
1584990511.16776,2,-2,-3,2,0,2,-2,-2
1584990511.188848,-1,0,0,2,4,1,2,0
1584990511.188848,-1,-3,0,0,2,0,0,0
1584990511.1915886,-2,-1,-2,-2,-1,-1,-3,2
1584990511.1915886,0,1,-3,0,-2,0,-4,-1
1584990511.2030306,0,-2,1,-1,-1,-4,-3,-4
1584990511.2030306,0,0,-1,-3,-4,0,-4,2
1584990511.209726,-3,0,-2,2,1,-1,-1,0
1584990511.209726,0,0,1,1,-2,0,0,0
1584990511.2264013,-1,-1,1,-3,2,0,1,-3
1584990511.2264013,1,-2,1,-1,0,-2,2,1
1584990511.232417,-2,-3,-1,0,4,2,-2,-2
1584990511.232417,-2,-1,-3,-3,1,-3,-3,0
1584990511.24865,-1,-5,-1,-2,3,-1,-1,1
1584990511.24865,-1,2,1,3,-3,-3,-3,-3
1584990511.250782,4,-1,-1,-2,-1,-5,0,0
1584990511.250782,-1,-2,1,-1,-5,-2,0,-2
1584990511.262669,-2,-2,1,0,-1,0,1,2
1584990511.262669,1,-1,-3,-1,-1,0,-3,1
1584990511.2710216,-3,-2,-1,1,-2,-2,0,-2
1584990511.2710216,0,-1,-1,1,-1,-1,-3,-1
1584990511.2860928,0,0,1,1,0,-1,0,-2
1584990511.2860928,-2,-2,2,0,3,0,-2,-1
1584990511.28785,-5,0,-1,-1,1,0,0,-2
1584990511.28785,-2,1,2,0,2,1,-1,-1
1584990511.3086178,-1,-3,-1,-2,2,-3,2,1
1584990511.3086178,0,-3,-3,2,1,4,-1,-2
1584990511.3104866,2,-3,-4,-1,-1,-3,0,-2
1584990511.3104866,-3,0,0,0,1,0,-1,0
1584990511.3223739,1,0,-2,-2,1,0,-2,0
1584990511.3223739,0,-2,1,0,-3,2,0,-2
1584990511.3310704,0,0,-3,0,0,0,2,0
1584990511.3310704,0,0,0,-3,0,-1,0,1
1584990511.3464746,1,-4,1,3,-3,-2,2,0
1584990511.3464746,-2,0,-2,1,0,0,-1,0
1584990511.352234,2,-2,0,-1,0,-2,-4,-2
1584990511.352234,0,-1,-1,-1,2,-1,0,1
1584990511.376061,0,-1,-3,-1,0,-1,-1,1
1584990511.376061,-2,-3,-1,0,-3,-1,1,-1
1584990511.3777497,0,-2,3,-2,-3,-4,-4,-2
1584990511.3777497,1,-2,1,0,2,1,0,1
1584990511.382235,1,-1,0,-3,-1,1,3,0
1584990511.382235,-2,-1,0,-4,2,0,-1,0
1584990511.3910434,-2,-5,-3,0,0,-1,-1,1
1584990511.3910434,-1,0,1,-3,4,0,-2,0
1584990511.4060912,2,0,1,1,2,-1,-2,-1
1584990511.4060912,-1,3,0,1,-3,3,0,-3
1584990511.407872,2,0,-2,0,-1,2,0,-3
1584990511.407872,-3,-3,-1,-4,2,0,0,0
1584990511.4286118,0,-1,-4,-1,-1,-1,-3,-1
1584990511.4286118,2,-3,1,0,1,0,2,-3
1584990511.4301703,-1,0,-3,-2,3,-1,-1,-1
1584990511.4301703,0,0,4,-3,-3,1,-1,1
1584990511.4423218,4,-4,0,1,-2,-1,-2,0
1584990511.4423218,-2,0,-2,-1,-1,-1,0,1
1584990511.4509964,0,-1,-3,0,-4,1,-1,-2
1584990511.4509964,0,1,-2,0,-3,-3,-2,1
1584990511.4660203,-4,-1,1,-1,3,0,0,1
1584990511.4660203,0,0,-1,-1,-2,0,0,2
1584990511.467456,-1,-3,-1,0,-4,-1,-1,-2
1584990511.467456,0,-1,0,0,-1,-3,-1,-1
1584990511.4885793,0,-1,-2,2,-1,1,-1,1
1584990511.4885793,-1,2,0,-2,0,-1,-2,-1
1584990511.490473,-2,-2,1,-2,1,0,3,-1
1584990511.490473,-1,0,0,-1,-4,-1,-1,0
1584990511.5023065,2,-5,-2,-2,1,-1,-3,1
1584990511.5023065,1,0,-2,2,0,-2,1,-1
1584990511.511075,1,-1,-2,-1,3,-2,2,0
1584990511.511075,-1,4,0,-4,2,0,-2,2
1584990511.526011,-2,-1,-1,-3,2,0,1,0
1584990511.526011,-1,-5,-1,2,-1,-2,-1,-1
1584990511.5276136,-4,-1,-1,-2,-1,2,1,-1
1584990511.5276136,1,-1,-1,3,1,1,1,1
1584990511.548572,1,-2,-2,0,-1,-1,0,1
1584990511.548572,1,-2,2,-3,1,0,-1,-1
1584990511.5502985,2,-3,-3,-1,0,0,1,0
1584990511.5502985,0,-1,0,-1,0,-3,-3,0
1584990511.5717108,-3,-3,2,-3,3,2,-1,0
1584990511.5717108,-1,1,-4,-1,-1,0,-1,-3
1584990511.5739563,-1,1,-2,3,2,-1,-1,0
1584990511.5739563,-2,-2,0,2,3,0,3,-1
1584990511.5860546,2,0,-2,0,-1,1,1,-1
1584990511.5860546,-1,-3,-1,-1,0,-1,1,-1
1584990511.5875533,1,1,-5,0,-4,2,-2,1
1584990511.5875533,1,1,0,-1,-2,-1,-3,-2
1584990511.6085582,0,-1,-2,0,-1,-4,3,-2
1584990511.6085582,-3,2,-1,1,3,1,1,0
1584990511.6105173,-2,1,-1,0,0,0,-1,0
1584990511.6105173,2,0,2,0,1,2,3,1
1584990511.622281,-2,-3,0,1,-4,-1,-1,-4
1584990511.622281,-1,0,-3,0,-1,1,0,-1
1584990511.6310472,-2,0,-6,1,-4,4,0,0
1584990511.6310472,0,-1,-2,-1,1,3,0,-2
1584990511.6535316,-3,0,0,-2,-3,1,-3,0
1584990511.6535316,2,-1,2,-2,0,-1,0,2
1584990511.6552117,0,-3,0,1,3,-1,0,-3
1584990511.6552117,1,0,-1,1,3,1,-1,0
1584990511.6736028,-1,-2,-1,0,0,0,-1,0
1584990511.6736028,-1,-4,-2,0,-1,-2,0,2
1584990511.6751215,-1,-1,-2,0,0,-3,0,-4
1584990511.6751215,3,-1,-1,-2,1,-1,0,-1
1584990511.691678,1,1,0,0,-3,0,-1,-1
1584990511.691678,-3,1,0,-2,1,-2,0,-3
1584990511.6933644,-1,2,3,-6,-2,1,1,0
1584990511.6933644,2,-1,0,0,-2,1,0,1
1584990511.706017,-1,-1,-1,0,-1,2,-1,0
1584990511.706017,0,-2,1,0,-4,-1,-2,-2
1584990511.7076526,-1,2,-3,-1,-2,-3,0,1
1584990511.7076526,-2,1,1,0,2,-3,-2,-2
1584990511.7285547,1,0,-5,-1,-1,0,-1,1
1584990511.7285547,1,-4,1,-2,-2,-3,0,-1
1584990511.730125,1,-2,-2,0,-3,-3,-4,-1
1584990511.730125,-1,-1,-1,1,0,0,3,-2
1584990511.7422721,-3,2,-1,-1,2,1,0,-1
1584990511.7422721,-3,0,1,-1,2,1,-1,-2
1584990511.751002,-1,-2,0,-1,2,-2,1,-1
1584990511.751002,0,-1,1,0,-1,-1,0,-2
1584990511.7659807,-1,-1,-2,-1,-1,-2,-3,-1
1584990511.7659807,0,-1,1,0,0,-1,-1,2
1584990511.7674851,1,-1,-2,-1,0,-1,1,-2
1584990511.7674851,1,-1,-1,-1,-1,0,0,0
1584990511.7885466,3,-2,-4,2,-1,-2,0,0
1584990511.7885466,0,1,0,-2,1,0,-1,-2
1584990511.7905939,0,0,-2,0,-4,-1,-1,3
1584990511.7905939,-1,0,0,0,-1,3,-2,1
1584990511.8022811,-1,1,1,-2,-4,-1,2,-1
1584990511.8022811,1,0,1,-2,-4,0,0,-2
1584990511.8172345,2,1,0,0,0,0,-1,-1
1584990511.8172345,-3,1,-2,0,0,-2,-1,-2
1584990511.8260639,-2,-4,0,1,0,-2,-1,1
1584990511.8260639,1,-2,-4,0,1,1,-1,0
1584990511.8277223,3,1,-2,-2,1,0,2,1
1584990511.8277223,-1,1,1,-2,-1,-2,0,-1
1584990511.848576,-2,1,0,-1,-2,0,0,-1
1584990511.848576,-1,-2,1,-3,-3,0,-2,-1
1584990511.8503876,-1,-2,-2,0,0,0,1,-1
1584990511.8503876,0,1,-3,0,-4,-2,-2,0
1584990511.8711174,-2,-1,-2,0,3,1,-2,0
1584990511.8711174,0,-1,3,-2,1,2,2,0
1584990511.8729582,0,-3,0,0,-1,0,-3,-3
1584990511.8729582,2,0,-1,0,-1,-1,3,-2
1584990511.8860795,-1,-1,-3,-1,0,-2,0,1
1584990511.8860795,0,-2,-1,-1,1,0,1,0
1584990511.8877842,-2,0,1,-1,1,-2,0,-1
1584990511.8877842,-1,-2,-2,-2,3,0,-2,-2
1584990511.9085453,-1,0,1,0,0,1,2,0
1584990511.9085453,-1,-4,-2,-2,-1,-3,1,-2
1584990511.9106326,4,0,-2,0,-1,-4,1,0
1584990511.9106326,1,0,-3,0,3,1,-4,0
1584990511.932135,2,0,-1,-1,1,2,-3,-1
1584990511.932135,0,-1,-4,-4,-2,1,0,2
1584990511.9335647,0,1,0,-2,-1,0,-1,-1
1584990511.9335647,-5,1,1,0,-4,2,2,2
1584990511.9459922,4,-1,-2,-3,-2,0,-1,1
1584990511.9459922,2,-2,-3,-2,0,-1,-2,1
1584990511.9476352,0,0,2,1,0,0,-1,1
1584990511.9476352,2,-1,2,0,1,3,0,1
1584990511.9685636,0,-1,-1,1,-1,-1,2,2
1584990511.9685636,-3,-2,1,1,0,-1,-3,-1
1584990511.9703414,0,-2,1,2,-1,0,1,0
1584990511.9703414,-2,-3,-1,-1,-3,-2,1,-2
1584990511.9909787,2,-3,-2,0,1,0,-1,1
1584990511.9909787,-1,-2,-1,-4,0,-2,0,-2
1584990511.9926112,3,0,1,0,-2,1,-1,-1
1584990511.9926112,0,-1,1,1,0,1,0,1
1584990512.0060015,0,-3,0,-1,-3,1,1,-1
1584990512.0060015,2,-2,-2,0,1,2,-1,-3
1584990512.0077298,2,-3,-1,1,-3,2,0,-3
1584990512.0077298,-1,-2,3,-1,-1,-1,0,1
1584990512.0285816,0,-1,0,0,0,0,0,1
1584990512.0285816,0,-1,-2,-1,0,3,-6,1
1584990512.0301368,2,-2,2,-2,-5,-2,3,-2
1584990512.0301368,0,-1,1,-1,0,-2,-2,-1
1584990512.0510461,2,-2,1,-3,0,-1,0,-2
1584990512.0510461,1,-1,1,0,-1,-2,0,-1
1584990512.052795,1,1,1,-1,-1,-2,-2,-3
1584990512.052795,-3,-1,-1,2,1,1,1,-1
1584990512.0653355,-1,0,2,-4,-2,1,0,-1
1584990512.0653355,-3,-3,-2,-2,1,-2,-3,1
1584990512.0720942,-2,-2,-1,-2,-2,0,-1,0
1584990512.0720942,1,0,0,-1,1,-1,-1,0
1584990512.0885575,-3,1,-1,0,-2,2,1,-1
1584990512.0885575,-2,1,-1,0,-2,0,-4,-1
1584990512.0905879,-1,-1,-3,0,-2,-2,-3,1
1584990512.0905879,-1,-2,0,0,-1,-1,0,-1
1584990512.1109252,1,-1,1,1,-1,0,-2,1
1584990512.1109252,0,4,-1,0,3,2,-3,-1
1584990512.1124544,1,0,1,-2,0,-1,1,0
1584990512.1124544,0,-2,0,-1,-2,-2,-1,-2
1584990512.125337,3,1,3,0,-1,-4,-3,-3
1584990512.125337,-1,-1,-2,-2,0,-3,-2,2
1584990512.132064,-2,-3,-4,0,-1,-1,-2,3
1584990512.132064,-1,0,-1,2,0,-1,0,-1
1584990512.1489677,0,-2,-2,1,-3,2,-1,-1
1584990512.1489677,-1,-1,-1,3,-3,0,0,0
1584990512.1508815,0,0,1,1,1,-1,1,-2
1584990512.1508815,-2,-1,-2,-3,-2,-1,0,0
1584990512.1718838,1,-2,0,-2,1,3,1,2
1584990512.1718838,-1,0,-1,1,0,-1,1,-2
1584990512.1740503,1,-1,0,-1,-2,-1,0,-2
1584990512.1740503,0,-5,1,-1,3,0,0,-1
1584990512.18481,1,-3,-1,0,-1,-1,-1,3
1584990512.18481,0,-2,0,-4,-4,0,-3,-1
1584990512.1934748,0,1,-3,-1,-1,-1,-4,0
1584990512.1934748,0,0,-5,0,5,2,0,0
1584990512.208563,2,0,2,1,-1,0,-3,-1
1584990512.208563,-2,0,-2,-3,3,1,2,-1
1584990512.2106094,-2,2,-1,0,1,-3,1,-2
1584990512.2106094,0,-3,-1,-1,-3,2,-1,-1
1584990512.2316225,-2,-2,0,-1,0,-2,-3,2
1584990512.2316225,2,-3,1,-2,-1,0,1,-2
1584990512.2330592,1,0,0,3,-3,1,-4,-3
1584990512.2330592,-2,3,-1,-3,0,-3,-2,-2
1584990512.2446477,1,-1,1,-1,-1,0,2,-1
1584990512.2446477,0,-2,-3,0,1,-3,-3,0
1584990512.2534955,-3,0,0,-1,-1,0,-3,1
1584990512.2534955,-3,2,1,2,1,-3,0,-3
1584990512.2685704,-1,-2,-1,-3,1,-2,1,0
1584990512.2685704,-1,-1,-1,-1,1,-2,-2,1
1584990512.270389,0,-1,1,1,-2,0,0,0
1584990512.270389,-1,-1,-1,0,-1,-3,0,-1
1584990512.2909677,-2,-3,1,1,-2,2,0,-2
1584990512.2909677,0,-3,-1,-2,0,0,-1,2
1584990512.2926452,0,3,1,0,-3,-2,-1,2
1584990512.2926452,0,-1,0,-1,-2,-1,-2,0
1584990512.3046904,1,3,0,0,0,0,0,-1
1584990512.3046904,-1,0,0,-2,0,-1,0,-1
1584990512.3135004,0,0,0,1,-2,1,2,-1
1584990512.3135004,0,0,-2,-1,0,-2,-1,0
1584990512.32857,-2,3,-1,-1,0,3,-1,-1
1584990512.32857,-3,-1,-3,0,-3,1,-3,0
1584990512.3302126,1,-2,-2,-1,-2,2,-1,-1
1584990512.3302126,0,0,0,1,1,0,-2,0
1584990512.351109,0,0,-1,0,-1,1,-1,-2
1584990512.351109,-2,-2,1,-1,2,0,-1,-1
1584990512.352844,-3,-1,-5,3,-3,0,1,1
1584990512.352844,0,-1,1,1,-2,0,-1,0
1584990512.3646572,-3,-4,2,1,-1,0,-3,-3
1584990512.3646572,-1,0,-1,1,1,-3,-3,-2
1584990512.373502,3,1,-1,1,0,-1,-3,1
1584990512.373502,-2,-1,-2,0,0,1,-2,1
1584990512.3885453,-1,2,1,-3,2,0,-3,-1
1584990512.3885453,-1,-1,-1,2,0,0,1,-1
1584990512.3904262,0,-1,-3,6,1,0,-2,1
1584990512.3904262,0,-1,-1,3,0,-2,0,-1
1584990512.4110131,-4,-1,-2,-1,-2,1,0,-2
1584990512.4110131,1,-1,-4,1,-1,1,1,0
1584990512.412642,-3,4,-4,-1,-3,1,-4,4
1584990512.412642,3,-1,-1,-1,-2,-4,-2,-5
1584990512.4246483,-4,-2,0,0,2,-2,-1,-1
1584990512.4246483,2,-1,-3,-4,1,-2,0,-1
1584990512.4334857,1,2,0,-4,1,-1,-2,-2
1584990512.4334857,-1,0,1,0,-2,1,2,0
1584990512.4485502,-4,-4,-2,0,0,2,0,1
1584990512.4485502,-2,-1,0,-3,2,3,0,-2
1584990512.4503844,-1,2,-2,-2,-2,-4,0,0
1584990512.4503844,2,0,-1,-4,0,-2,1,0
1584990512.471082,3,2,3,-1,-2,1,0,-5
1584990512.471082,-2,-3,0,-1,0,-2,-2,-1
1584990512.4728441,1,-2,-2,-1,1,1,1,2
1584990512.4728441,1,0,0,0,2,0,-1,1
1584990512.4847214,-4,-2,0,2,-1,-1,1,0
1584990512.4847214,-5,1,0,0,-2,-1,-2,-3
1584990512.4935126,-1,2,-1,3,0,-3,0,-1
1584990512.4935126,0,-2,0,-3,0,-1,-1,-1
1584990512.5085385,-2,0,-4,1,0,0,0,-1
1584990512.5085385,-3,0,1,1,-4,1,-4,-1
1584990512.5103703,2,2,0,-1,-4,0,1,0
1584990512.5103703,0,-2,-4,-2,0,-1,-1,-2
1584990512.5310018,1,0,1,2,-2,-3,1,0
1584990512.5310018,-2,-1,-1,-3,-3,-1,-2,1
1584990512.5324893,-1,-1,-3,-1,-4,2,-1,-1
1584990512.5324893,-1,-3,-2,3,1,0,2,0
1584990512.544661,-1,-2,0,-1,1,-1,1,0
1584990512.544661,0,0,0,1,-1,-1,0,1
1584990512.5535274,0,2,2,-1,-1,-4,-4,-1
1584990512.5535274,-1,-1,-3,1,-2,-2,2,-2
1584990512.56856,2,-1,-3,0,-2,1,1,3
1584990512.56856,-1,0,1,-3,1,-1,0,-1
1584990512.5702636,-3,-1,0,1,0,-1,-1,-1
1584990512.5702636,-1,-2,-1,-2,0,-2,-4,0
1584990512.5909262,0,-1,-1,1,-1,-1,-2,-1
1584990512.5909262,-1,-3,-3,-1,-2,0,-4,-1
1584990512.5924277,-1,1,-2,0,-3,0,-2,-2
1584990512.5924277,-2,0,-2,-1,-5,0,-1,0
1584990512.604645,1,1,0,-3,-1,-1,-1,0
1584990512.604645,0,3,0,-3,0,1,-3,-2
1584990512.6134546,0,1,-1,-2,-2,1,-1,2
1584990512.6134546,-2,-1,1,-1,0,-1,-2,0
1584990512.6284754,-2,1,2,1,5,0,-2,-2
1584990512.6284754,-3,0,-2,-3,1,-1,1,-1
1584990512.6300619,-1,-3,-1,-2,3,1,0,1
1584990512.6300619,1,-1,-1,-2,3,0,2,-2
1584990512.6510766,-3,-4,1,-2,-1,2,1,1
1584990512.6510766,-2,1,-1,-2,0,-3,-1,-1
1584990512.652704,1,-1,-1,0,-2,0,-1,-2
1584990512.652704,-2,-1,0,1,-1,0,-1,-3
1584990512.6735466,-1,-7,1,2,-1,-1,1,-2
1584990512.6735466,2,-2,-2,0,-2,-4,0,2
1584990512.675258,0,2,-3,3,0,1,0,-1
1584990512.675258,-4,-1,-1,0,0,0,-1,-1
1584990512.6885483,0,0,0,-1,2,1,-1,-4
1584990512.6885483,-1,0,0,-4,-2,1,0,1
1584990512.6906412,0,-1,0,1,-2,0,0,-1
1584990512.6906412,-1,1,-6,-1,-1,-2,1,0
1584990512.711013,-2,0,-3,-5,-1,2,1,-1
1584990512.711013,2,0,1,-1,0,-1,-2,2
1584990512.7127135,-2,-2,-2,1,2,0,-3,0
1584990512.7127135,2,-2,1,0,-2,-1,1,0
1584990512.7335303,-1,-3,1,-1,-3,1,1,0
1584990512.7335303,0,0,-1,1,-3,-3,-2,2
1584990512.7349322,-1,1,-3,-1,-1,0,-2,-1
1584990512.7349322,-3,-4,-1,-2,0,1,-1,1
1584990512.7485487,-3,2,-2,1,-4,-3,-3,-1
1584990512.7485487,2,1,1,1,2,0,3,-4
1584990512.7502475,-1,1,0,-1,-1,2,-1,-2
1584990512.7502475,-1,-2,0,1,-1,2,1,-1
1584990512.7716885,-3,-2,-4,0,-3,-3,0,-2
1584990512.7716885,-2,-2,3,-2,-1,-1,1,-1
1584990512.7738588,1,2,-2,-1,-1,-2,3,-2
1584990512.7738588,3,-1,-3,1,2,1,-3,-3
1584990512.784713,-3,-1,-2,-3,0,3,-1,-1
1584990512.784713,1,-3,0,0,-1,-2,-1,-3
1584990512.793493,1,0,0,2,1,1,1,1
1584990512.793493,-3,0,1,0,1,0,2,-1
1584990512.8085432,-2,-1,2,2,-2,-1,0,-3
1584990512.8085432,-3,0,0,0,-4,2,-1,0
1584990512.810548,0,0,1,-2,2,1,-2,-1
1584990512.810548,2,-1,-2,-2,1,0,2,-1
1584990512.8309722,2,-1,-1,2,0,-2,-1,2
1584990512.8309722,-2,0,-3,-1,2,0,0,-2
1584990512.8324804,-1,-2,-2,1,1,-5,-2,-1
1584990512.8324804,0,2,-5,-1,0,1,-1,2
1584990512.8535318,2,2,0,1,0,1,0,0
1584990512.8535318,-3,1,-2,0,0,1,-3,1
1584990512.8551197,0,-1,1,2,0,-3,0,1
1584990512.8551197,-1,-1,-1,-3,-3,1,-2,1
1584990512.8685489,-3,0,1,-3,1,0,1,1
1584990512.8685489,2,-2,3,-6,-2,-1,-2,-2
1584990512.8703163,-3,0,-2,1,-1,-1,-3,-4
1584990512.8703163,1,-1,-3,1,-1,-1,0,-4
1584990512.8900545,-4,0,0,1,3,-2,1,-3
1584990512.8900545,0,-1,-3,-1,2,-1,-1,-2
1584990512.898511,-1,-1,0,0,1,-3,-1,-2
1584990512.898511,1,-1,-1,0,0,-2,2,0
1584990512.9135208,0,-2,0,0,1,0,3,1
1584990512.9135208,1,-1,-2,-2,-1,-2,2,2
1584990512.9148967,1,-1,0,0,2,-3,-1,-2
1584990512.9148967,0,-2,1,0,-1,2,-2,-2
1584990512.9285476,-2,0,1,-2,4,2,-1,2
1584990512.9285476,-2,4,-2,-2,0,-1,-1,-3
1584990512.9301758,-4,-3,2,-4,-2,-3,1,-1
1584990512.9301758,-1,0,-1,0,-1,0,-2,0
1584990512.9510336,0,0,-1,2,-2,0,-1,-2
1584990512.9510336,1,0,0,0,-1,-1,-1,-1
1584990512.9528224,-1,-1,0,1,0,0,2,0
1584990512.9528224,0,-2,-3,-1,4,0,0,0
1584990512.9735315,-1,-4,1,1,-6,-5,-2,-2
1584990512.9735315,3,-2,-2,-1,-5,-1,0,-1
1584990512.975261,1,-1,0,-4,3,0,0,0
1584990512.975261,-1,0,0,1,-2,-4,-1,2
1584990512.988533,-1,1,-4,1,-4,0,0,-2
1584990512.988533,1,-4,-3,-2,-5,-1,0,-2
1584990512.99064,-4,1,-1,-3,-5,-3,1,-3
1584990512.99064,1,-2,0,1,1,1,-1,0
1584990513.010069,0,5,1,0,0,2,-1,-1
1584990513.010069,-1,1,-1,-3,0,1,3,1
1584990513.0245612,0,-2,-1,0,2,3,-1,0
1584990513.0245612,1,-2,-1,0,1,1,-3,-1
1584990513.0409482,1,-3,-3,-3,2,2,0,1
1584990513.0409482,-3,-1,-2,-2,-4,1,-1,-1
1584990513.0429614,-4,-2,-1,-1,-3,-3,-1,0
1584990513.0429614,1,1,-3,1,-1,0,-1,0
1584990513.0482738,0,-1,3,0,-4,-1,-2,-2
1584990513.0482738,0,-1,-1,-1,-1,-2,0,-2
1584990513.0546122,-2,0,1,-3,-1,-1,-2,5
1584990513.0546122,-1,0,-1,3,-1,-5,-2,-1
1584990513.0710866,0,-2,-1,1,1,-2,-1,-1
1584990513.0710866,-2,1,0,2,0,2,-1,-2
1584990513.07286,1,1,-2,-3,0,-1,1,-2
1584990513.07286,0,-1,1,-1,-1,1,1,-3
1584990513.0935423,3,1,3,3,-2,-1,-3,3
1584990513.0935423,0,-1,-2,-1,0,0,1,0
1584990513.0952332,-2,1,-3,-1,-2,1,1,-2
1584990513.0952332,2,1,-1,0,2,0,1,-1
1584990513.1071513,0,-3,0,0,0,-3,-1,1
1584990513.1071513,2,-1,0,1,-1,-1,-1,-2
1584990513.1160524,-2,0,2,-2,-3,-1,-1,-3
1584990513.1160524,-1,-1,0,0,2,1,-1,-2
1584990513.130957,0,0,0,-2,1,1,-3,-2
1584990513.130957,0,1,2,-2,0,-4,1,0
1584990513.1323993,0,1,-2,1,1,0,1,1
1584990513.1323993,-1,1,0,-2,-1,-3,-1,0
1584990513.1609066,-3,-3,2,-2,-1,-2,-3,-1
1584990513.1609066,1,-2,-1,0,-3,0,-1,-1
1584990513.1624665,-2,1,-1,0,0,2,-1,0
1584990513.1624665,0,-2,-1,-1,1,1,-3,-2
1584990513.1674137,0,0,-2,2,-5,-1,-2,-2
1584990513.1674137,2,1,-4,-3,-2,-2,-2,-2
1584990513.1771243,0,1,0,-3,0,1,0,-4
1584990513.1771243,1,-3,2,-1,0,0,-2,-4
1584990513.1909082,-1,-3,0,-1,1,-1,1,-3
1584990513.1909082,2,-2,0,0,-1,-1,1,-1
1584990513.1930819,1,0,-3,-2,0,-3,0,-1
1584990513.1930819,1,1,0,1,0,-4,-1,0
1584990513.213496,-1,-1,0,0,-1,0,0,-1
1584990513.213496,-1,0,-1,-1,-1,-3,-1,1
1584990513.2151396,-2,0,-2,0,1,0,0,2
1584990513.2151396,2,-2,-2,1,-1,1,-3,-1
1584990513.2270603,1,-1,1,3,-3,-1,-5,-3
1584990513.2270603,3,1,0,-2,-1,-1,0,2
1584990513.2368634,-2,0,-2,3,-1,-3,0,3
1584990513.2368634,-4,0,-3,-1,-2,-2,2,0
1584990513.2509716,0,-1,-1,-1,-1,-1,-1,-1
1584990513.2509716,-1,1,-1,-1,-2,-1,0,0
1584990513.252615,0,1,-1,1,2,-2,1,0
1584990513.252615,-2,-1,0,-4,1,-1,-2,-2
1584990513.2735455,0,1,2,-1,0,1,-1,-2
1584990513.2735455,0,-2,1,0,1,-1,-2,-1
1584990513.2752883,-1,0,-2,-1,-1,-3,-3,1
1584990513.2752883,0,-6,-3,0,2,0,1,-1
1584990513.2875714,0,3,2,1,1,-1,-3,-2
1584990513.2875714,-3,1,-1,-2,-2,-2,-2,1
1584990513.295978,0,-2,1,-1,1,1,3,0
1584990513.295978,-3,0,-3,-1,-1,1,1,-3
1584990513.3100507,-1,0,1,-1,-3,0,-1,-1
1584990513.3100507,-2,0,0,-1,-4,-3,-2,3
1584990513.3184617,-1,3,0,-2,-1,0,1,-2
1584990513.3184617,2,-2,-3,0,-3,2,0,1
1584990513.3335335,1,-2,-2,-1,-1,1,1,-3
1584990513.3335335,-2,0,1,-2,-2,1,4,1
1584990513.334906,-2,-2,1,-2,-1,0,0,1
1584990513.334906,1,-3,-3,-2,-1,0,0,-2
1584990513.347101,0,-1,2,-2,-1,1,-3,0
1584990513.347101,1,-3,-1,0,1,0,-2,1
1584990513.3560174,-1,2,1,-2,0,0,-1,-1
1584990513.3560174,0,1,1,0,0,1,0,1
1584990513.371047,1,1,-1,-1,3,0,1,-1
1584990513.371047,0,-3,0,-3,-2,-2,-1,-4
1584990513.3727064,2,-3,-1,2,-2,-2,-2,1
1584990513.3727064,-1,-1,-3,-1,-2,2,-2,-4
1584990513.3935256,0,1,-3,-1,1,1,-5,-1
1584990513.3935256,-2,-1,-1,2,-2,0,2,3
1584990513.3951175,0,-2,1,4,-2,-2,-2,-1
1584990513.3951175,3,-3,-1,2,-1,-3,-1,2
1584990513.4071398,0,-3,0,-2,0,3,2,-1
1584990513.4071398,0,-1,0,1,1,-2,0,2
1584990513.416012,-3,-2,0,-1,-2,-1,2,-2
1584990513.416012,-2,-3,0,-1,1,0,0,0
1584990513.4309433,0,1,-2,1,-1,0,3,-2
1584990513.4309433,-3,-1,-4,0,1,1,-3,-4
1584990513.4324486,-1,1,1,0,1,0,-2,0
1584990513.4324486,-1,-4,1,2,-1,1,0,-1
1584990513.4535182,-2,3,-2,-2,-1,-1,0,0
1584990513.4535182,0,0,-1,1,1,0,-3,0
1584990513.455172,0,0,-1,-4,-1,-1,2,-2
1584990513.455172,1,0,1,2,2,-1,0,0
1584990513.4671347,0,-2,3,0,1,3,-1,2
1584990513.4671347,0,1,1,-1,0,2,-1,2
1584990513.4759805,0,0,-2,-1,-1,0,3,-1
1584990513.4759805,-1,2,1,-2,-3,0,-1,-2
1584990513.4909937,-1,3,0,1,-1,3,-2,-1
1584990513.4909937,-4,-1,-3,-2,-1,-1,0,-1
1584990513.4925988,1,-1,-1,0,-2,-2,-1,0
1584990513.4925988,-3,-2,1,0,-1,4,1,1
1584990513.5135624,0,-1,-1,-2,0,0,-2,1
1584990513.5135624,-2,-2,-1,1,2,-3,-1,2
1584990513.514903,-1,-3,-1,-1,2,1,0,2
1584990513.514903,-1,0,-3,0,2,-1,0,-1
1584990513.5271382,3,-4,0,-1,-2,2,-1,-2
1584990513.5271382,-1,-2,-1,3,-2,-2,-2,0
1584990513.5359504,-1,-2,1,-1,-1,-3,0,-1
1584990513.5359504,-1,-2,-1,-5,0,2,-1,-1
1584990513.5510266,-2,0,-1,-1,1,0,-1,-3
1584990513.5510266,-3,0,-2,3,3,-1,0,-1
1584990513.5526915,1,1,-3,0,-1,-2,1,2
1584990513.5526915,0,0,0,-2,1,0,1,-4
1584990513.5734153,-3,-6,-3,-3,-3,-1,1,1
1584990513.5734153,-2,-3,-2,-3,-3,0,-2,-2
1584990513.575176,-1,2,-2,-1,-1,0,-3,-2
1584990513.575176,-1,0,-3,1,-1,-1,0,1
1584990513.5958815,2,-3,0,-1,-4,-2,-2,-3
1584990513.5958815,0,1,-2,0,4,-1,-3,-1
1584990513.5973125,0,-1,-2,1,1,2,-3,1
1584990513.5973125,-2,0,-1,-2,-2,0,0,0
1584990513.6109536,-1,-3,1,-1,1,0,-1,0
1584990513.6109536,3,-2,-2,1,-1,0,1,-1
1584990513.6125586,0,-2,1,-1,1,-1,0,1
1584990513.6125586,-3,2,-1,-3,0,-1,-1,0
1584990513.6334608,0,-2,-1,1,2,0,2,3
1584990513.6334608,0,-1,0,-1,0,1,-2,-3
1584990513.6348045,-4,-3,2,2,-3,2,0,-1
1584990513.6348045,-2,0,-1,-4,0,-4,-3,-2
1584990513.647119,1,-3,-1,0,-2,-2,-1,0
1584990513.647119,1,1,0,-3,-3,1,0,-2
1584990513.6560068,0,-1,-1,1,2,-1,-2,0
1584990513.6560068,-2,0,1,-2,1,0,0,1
1584990513.6712468,1,-2,-1,-1,-2,-3,-4,-1
1584990513.6712468,1,4,-2,0,-1,-1,-1,-1
1584990513.6732693,-1,0,0,0,1,-1,1,0
1584990513.6732693,-2,0,0,0,0,-1,1,-4
1584990513.6935587,4,-4,0,-1,-1,-2,-3,0
1584990513.6935587,2,1,-1,0,-3,1,-1,0
1584990513.6952772,2,0,-1,2,2,0,1,0
1584990513.6952772,1,-1,0,1,0,-1,2,1
1584990513.707093,2,-4,-1,-2,-2,2,0,-1
1584990513.707093,0,0,-2,2,-3,-1,0,3
1584990513.7160037,-1,-1,-1,0,-1,0,0,1
1584990513.7160037,1,0,0,1,-2,-4,-1,-1
1584990513.7303,-3,-1,1,-1,0,-2,0,-2
1584990513.7303,-3,4,-1,1,0,0,-2,-3
1584990513.7370677,-1,-1,-1,-1,1,-3,-1,-2
1584990513.7370677,-1,-1,-2,-3,0,2,4,-1
1584990513.7535136,-1,-5,-4,-1,2,-2,-1,-3
1584990513.7535136,0,0,-3,0,-1,2,-3,-4
1584990513.755245,1,-1,0,-4,-2,2,2,-1
1584990513.755245,0,-2,1,1,1,0,-1,0
1584990513.775961,-1,-3,2,-1,1,0,-1,2
1584990513.775961,-2,-2,-1,-2,1,-4,0,2
1584990513.777661,-1,-4,1,-1,1,0,-2,2
1584990513.777661,0,0,-1,1,0,1,-1,1
1584990513.79091,-1,-2,-2,-1,-2,0,0,0
1584990513.79091,-1,-1,3,-2,1,-1,-3,0
1584990513.7925272,-2,1,1,0,-1,-2,0,-1
1584990513.7925272,1,2,-1,-2,-3,-1,-2,-2
1584990513.8135245,-3,-4,-4,0,2,-1,0,1
1584990513.8135245,0,-1,-2,-3,-2,2,2,-3
1584990513.814824,-1,-2,-1,0,0,-1,-2,0
1584990513.814824,-1,-1,-1,1,2,-2,-2,1
1584990513.8366916,-1,2,-2,0,0,2,-2,1
1584990513.8366916,0,0,-1,-3,0,1,-3,-1
1584990513.838401,-2,-1,0,-3,1,0,2,0
1584990513.838401,-2,1,-1,0,-3,-2,-1,-3
1584990513.8516667,-2,-1,-1,-4,-1,-1,2,0
1584990513.8516667,0,2,0,0,-3,0,2,-3
1584990513.8537643,1,0,-1,-1,-4,-2,0,0
1584990513.8537643,-3,-2,-2,0,-2,-1,-1,-3
1584990513.8735456,-4,-1,-2,1,0,0,-1,0
1584990513.8735456,2,2,-1,-2,1,0,-1,0
1584990513.8752823,-1,-1,2,0,-3,0,-3,-1
1584990513.8752823,0,-3,-3,-3,0,-1,-3,-3
1584990513.896006,2,-2,1,-3,-1,-1,-2,0
1584990513.896006,0,0,-1,-5,0,-3,1,-3
1584990513.897428,-1,-2,0,1,0,-2,-3,-3
1584990513.897428,2,-2,-1,-3,-3,1,-2,3
1584990513.910974,2,-2,-1,-1,-4,1,-2,-1
1584990513.910974,0,2,1,1,-4,-1,-2,0
1584990513.9125314,-1,0,-3,0,2,0,-1,-1
1584990513.9125314,-2,0,1,0,0,0,2,-2
1584990513.933517,0,0,-2,-2,2,3,1,-2
1584990513.933517,2,0,0,-1,-3,0,-3,-1
1584990513.9348638,2,2,-3,0,0,2,-1,-1
1584990513.9348638,0,-3,0,-2,1,1,-1,-2
1584990513.9560287,-1,-1,-1,3,1,0,0,1
1584990513.9560287,-1,-1,-2,-1,0,0,-3,0
1584990513.9577467,0,0,-2,2,1,2,-2,0
1584990513.9577467,-1,-3,0,0,0,-3,-1,0
1584990513.9707465,-2,-3,-1,2,-3,-1,2,1
1584990513.9707465,0,-1,1,0,3,-1,-1,0
1584990513.9784694,-2,-1,1,-5,-3,-3,0,-1
1584990513.9784694,0,-3,0,-3,1,-2,1,-2
1584990513.99348,2,0,-3,-2,-3,1,-1,2
1584990513.99348,-2,2,-1,1,-1,0,-1,-1
1584990513.9950688,-1,-1,0,-2,0,1,-3,-2
1584990513.9950688,-2,1,-3,-4,2,-1,2,2
1584990514.015999,-2,-2,-1,3,-1,3,1,-2
1584990514.015999,0,1,1,-1,0,0,-4,1
1584990514.0178099,1,2,2,-5,1,-1,-3,0
1584990514.0178099,0,-2,0,0,0,-1,-1,2
1584990514.030266,-1,-1,-1,-1,1,0,2,1
1584990514.030266,-2,-1,0,1,0,0,-1,0
1584990514.0370767,-4,-2,-1,-1,0,-3,-2,0
1584990514.0370767,0,-1,1,0,-2,1,-1,-3
1584990514.0535207,-4,1,2,2,0,-2,-2,0
1584990514.0535207,2,-1,0,-3,-2,1,-2,1
1584990514.0552566,-2,-5,-3,1,-2,-2,0,-3
1584990514.0552566,-1,-2,-2,-2,-1,2,-3,0
1584990514.0759952,1,-2,-2,3,3,0,-1,-2
1584990514.0759952,1,1,0,-1,-1,-2,1,1
1584990514.0777116,0,0,1,-1,-2,0,0,-4
1584990514.0777116,-1,-1,-1,2,-1,-1,-2,-3
1584990514.0991187,-2,2,2,0,0,-3,-3,1
1584990514.0991187,0,1,-4,-1,2,0,1,-1
1584990514.1005425,-4,-3,2,1,-2,-3,1,1
1584990514.1005425,2,-2,1,0,1,0,-2,-2
1584990514.1135,0,2,1,-2,-1,1,1,-2
1584990514.1135,-1,3,0,0,-2,2,-1,3
1584990514.1148179,2,1,-2,-1,1,3,-2,3
1584990514.1148179,1,-3,-3,-2,2,-1,0,-3
1584990514.1359801,-3,-3,-1,-2,-2,-2,1,1
1584990514.1359801,-1,-2,1,-2,-1,4,1,2
1584990514.1378345,0,-2,-1,-3,-3,-1,0,1
1584990514.1378345,-1,-1,0,3,0,-3,-1,2
1584990514.1496005,1,-3,-3,1,2,-1,2,-3
1584990514.1496005,-1,2,0,-1,-3,-1,0,-3
1584990514.1584322,-2,-3,1,2,-2,-1,-1,2
1584990514.1584322,0,-2,0,-2,-1,-1,-2,2
1584990514.1735315,-3,2,-2,-3,-3,0,-1,1
1584990514.1735315,-1,2,-1,-2,0,1,0,0
1584990514.1752446,1,-2,-1,-1,1,-2,-1,-2
1584990514.1752446,-2,-1,2,0,-3,1,-1,0
1584990514.196001,0,-5,-1,-2,-4,2,-1,0
1584990514.196001,0,1,2,-1,-4,-1,-1,-1
1584990514.1974177,-1,-1,2,1,-1,0,-1,1
1584990514.1974177,-1,0,0,0,0,2,-1,1
1584990514.2095695,0,0,-2,2,4,-1,-4,0
1584990514.2095695,1,0,-1,3,0,-1,2,2
1584990514.218471,-4,1,-3,0,-2,1,1,1
1584990514.218471,2,-1,1,-2,-4,1,-1,-1
1584990514.2334998,0,-1,2,-2,-2,0,1,1
1584990514.2334998,2,-1,1,0,-1,-1,0,-3
1584990514.234906,-1,-1,4,0,-2,-1,1,1
1584990514.234906,-2,1,-3,0,-6,2,-2,0
1584990514.2559419,3,-1,3,1,-3,-2,-2,0
1584990514.2559419,-3,0,1,1,0,1,0,-1
1584990514.2576365,-3,-1,-2,-1,0,3,-1,0
1584990514.2576365,1,0,-1,-1,0,-3,-2,0
1584990514.269671,-1,2,1,-1,2,-1,0,0
1584990514.269671,0,0,-1,-3,0,1,-1,1
1584990514.2784586,-1,-3,-3,1,0,3,1,0
1584990514.2784586,-7,1,-1,1,3,-3,-1,1
1584990514.293512,-2,2,1,1,0,1,-1,-1
1584990514.293512,-3,0,-5,-2,-3,-2,-3,-1
1584990514.2951722,-2,-2,-1,0,2,-1,-2,0
1584990514.2951722,-1,1,0,1,-1,1,-2,-1
1584990514.3160193,1,-2,-1,-3,-1,1,-1,0
1584990514.3160193,2,-1,-3,-1,1,0,0,-2
1584990514.3177414,0,-2,-2,-2,0,0,-1,0
1584990514.3177414,1,0,2,-3,0,-3,-4,-3
1584990514.3296123,3,-2,-3,-3,1,0,1,-1
1584990514.3296123,-2,1,-3,-1,0,0,-2,-1
1584990514.338472,-1,1,1,0,0,-3,2,0
1584990514.338472,1,-1,2,-1,1,0,-3,-2
1584990514.353513,0,2,-2,-2,-2,1,-1,1
1584990514.353513,-2,-2,-2,0,-3,1,2,0
1584990514.3551667,1,0,2,-2,1,-1,-2,-1
1584990514.3551667,-3,0,-1,0,1,-2,-2,-1
1584990514.3759959,-2,0,-3,1,-2,-1,1,-1
1584990514.3759959,-3,-1,-1,-1,-2,1,0,-1
1584990514.3777118,-1,-5,-1,0,-1,-2,1,0
1584990514.3777118,0,0,0,-1,0,-3,1,1
1584990514.3896115,0,1,2,2,0,-1,-1,-1
1584990514.3896115,-1,2,-2,0,-1,-1,1,1
1584990514.398476,-2,-2,-2,-1,2,-1,0,-1
1584990514.398476,0,1,1,-1,0,0,-3,1
1584990514.4133985,1,-3,-1,-1,-1,-1,-1,-1
1584990514.4133985,-1,3,-1,1,-2,-2,1,0
1584990514.415163,-1,-1,0,0,2,1,-1,-1
1584990514.415163,1,0,0,1,-2,1,0,-1
1584990514.435941,0,-3,-3,0,0,0,4,-1
1584990514.435941,2,1,1,-1,0,-2,0,-1
1584990514.4377658,0,-1,1,0,2,3,1,-2
1584990514.4377658,-2,-1,0,1,-1,2,-1,2
1584990514.4496439,-2,1,3,1,0,-3,0,2
1584990514.4496439,-4,-2,-2,-2,-2,0,1,-2
1584990514.4584377,-1,-1,0,-2,-1,-1,-2,-1
1584990514.4584377,1,1,-2,-1,4,2,0,-1
1584990514.4734046,0,0,1,0,-2,0,0,0
1584990514.4734046,0,-1,-2,0,1,0,-3,-2
1584990514.4750671,-2,-4,-1,-1,0,-3,-1,0
1584990514.4750671,0,-3,-1,1,0,0,0,-2
1584990514.4959292,1,-2,-1,1,1,2,1,-1
1584990514.4959292,-1,0,-1,0,0,-3,-2,-3
1584990514.4973848,0,-2,2,-2,-1,-1,0,-1
1584990514.4973848,1,-1,-2,1,3,-1,-1,0
1584990514.5096025,-1,0,-2,1,1,-2,-2,-2
1584990514.5096025,0,1,1,-2,-3,-1,0,-1
1584990514.518502,-3,-1,3,-1,0,-2,-3,-1
1584990514.518502,-1,-2,1,-1,3,-3,-5,-1
1584990514.5334098,-1,-1,0,-2,1,-2,3,0
1584990514.5334098,-1,1,-2,0,0,-1,0,-2
1584990514.5348406,1,-1,-2,-2,-1,0,-3,-1
1584990514.5348406,0,-2,2,2,-3,-1,0,-1
1584990514.5559354,0,-2,-1,1,1,0,0,1
1584990514.5559354,2,-1,-1,-4,-1,-1,-1,-1
1584990514.5576155,-2,-2,0,-1,-1,1,1,-2
1584990514.5576155,-2,0,1,-2,-2,-1,0,0
1584990514.5696204,-1,0,2,-3,1,-1,1,0
1584990514.5696204,0,-1,-2,-1,0,-1,-3,-3
1584990514.5784512,-4,0,-2,2,0,-2,3,-2
1584990514.5784512,0,-1,-1,-5,-1,-1,2,1
1584990514.5933237,0,-1,0,0,0,0,-4,-2
1584990514.5933237,0,-1,-2,-1,-2,-2,-1,-4
1584990514.5947518,0,-5,2,-3,3,1,-2,-2
1584990514.5947518,2,-2,-3,-1,2,-3,-2,0
1584990514.6159642,-3,-2,-1,-2,-1,-2,3,-3
1584990514.6159642,-3,-1,-3,0,-2,-2,1,-1
1584990514.617614,0,-4,0,1,-6,-2,-4,-1
1584990514.617614,-1,-1,2,1,-1,1,2,0
1584990514.6295457,0,2,-3,-1,-2,0,-2,1
1584990514.6295457,-3,-2,-1,4,0,-2,2,-1
1584990514.6384213,0,0,0,1,1,0,1,1
1584990514.6384213,-1,-4,-1,-2,-2,-1,0,0
1584990514.6533544,3,1,3,1,-3,0,3,-1
1584990514.6533544,-1,-2,-1,-3,1,0,2,0
1584990514.654822,0,0,-3,2,0,0,-3,-5
1584990514.654822,-3,1,-2,-2,-1,-1,-1,0
1584990514.6758976,0,2,-3,0,-3,-2,-3,-1
1584990514.6758976,1,1,1,0,0,-4,-3,-1
1584990514.6776252,1,2,-3,3,0,-1,2,1
1584990514.6776252,-1,0,1,-2,1,-1,1,3
1584990514.7059886,0,3,1,1,-1,0,-2,0
1584990514.7059886,-1,0,1,-4,-4,0,-1,-3
1584990514.707669,0,-3,-3,-2,1,0,1,-1
1584990514.707669,-3,-2,1,-1,1,2,0,-3
1584990514.713405,-1,-2,-4,0,-1,4,0,1
1584990514.713405,-3,1,-1,0,0,-1,-2,-2
1584990514.714987,-1,-2,-2,0,-2,0,-1,0
1584990514.714987,-2,1,-2,-1,1,0,0,0
1584990514.7359588,-1,3,-4,-2,2,1,-1,0
1584990514.7359588,0,1,0,2,0,-1,-3,3
1584990514.7378242,0,-3,-1,0,-2,-2,2,0
1584990514.7378242,-3,-5,-1,-1,-2,0,-1,1
1584990514.758386,0,-1,1,-1,-6,0,3,-1
1584990514.758386,0,2,-1,0,0,0,1,0
1584990514.760084,0,0,-4,0,1,-3,2,0
1584990514.760084,-4,3,3,-2,-1,0,-3,-2
1584990514.7734897,-3,3,-2,-2,-3,0,-1,-2
1584990514.7734897,-1,-2,-1,-4,0,-2,-3,-1
1584990514.775529,0,0,1,-1,-2,0,3,0
1584990514.775529,-1,-3,2,-2,0,1,-1,-2
1584990514.7959714,3,-2,-1,1,1,-2,-3,3
1584990514.7959714,-1,-2,-2,-1,1,0,1,0
1584990514.7974124,-3,2,1,0,-1,-2,3,-2
1584990514.7974124,0,-2,0,1,3,0,-1,0
1584990514.8184938,0,-1,3,3,-2,0,2,-2
1584990514.8184938,-3,2,-2,-1,-1,-2,-2,0
1584990514.8198473,-2,-2,0,3,1,1,-1,-3
1584990514.8198473,0,-2,-1,-1,1,1,2,3
1584990514.8335054,-1,-3,0,-3,0,-3,-1,-2
1584990514.8335054,-1,1,0,0,0,-1,1,1
1584990514.8348339,1,0,1,0,3,1,-3,1
1584990514.8348339,1,1,-2,-2,-2,0,0,-3
1584990514.8559728,1,2,-2,-1,3,2,2,-3
1584990514.8559728,2,-2,-1,0,-5,-1,1,-1
1584990514.8577633,-2,0,-2,-2,-2,-1,-1,0
1584990514.8577633,1,-4,1,1,-1,-1,-3,-2
1584990514.878495,1,2,0,1,1,-2,1,1
1584990514.878495,1,-2,-2,-1,-2,-2,-1,-2
1584990514.8798697,1,2,0,1,-1,1,-1,0
1584990514.8798697,-1,0,0,3,2,1,2,-1
1584990514.8934033,1,0,-1,-2,0,-1,-1,2
1584990514.8934033,-2,3,-5,-5,0,-1,3,0
1584990514.8950613,-2,-1,-2,0,-3,0,-1,-3
1584990514.8950613,4,2,0,2,-1,0,-1,0
1584990514.915982,0,-2,0,0,-2,-2,0,-1
1584990514.915982,0,2,-1,-2,-2,0,-1,-1
1584990514.9177022,-2,-1,-1,-2,2,0,1,0
1584990514.9177022,1,-2,0,-3,1,1,-1,0
1584990514.9384344,1,-3,-1,-4,4,-2,0,-3
1584990514.9384344,-1,0,-2,-2,0,2,-4,-2
1584990514.940571,0,-3,-1,-1,2,1,0,1
1584990514.940571,-4,-3,1,-1,2,2,1,0
1584990514.9527068,0,-4,-1,1,-1,1,0,0
1584990514.9527068,1,1,-1,1,1,2,0,-2
1584990514.9595304,-1,-2,-1,0,-1,0,0,0
1584990514.9595304,0,0,0,2,0,-3,2,-1
1584990514.9750059,0,-2,0,-1,-1,0,-1,0
1584990514.9750059,-1,0,-3,0,-6,-2,-1,-2
1584990514.9834108,0,0,-1,1,0,1,0,-3
1584990514.9834108,0,-3,0,-1,-2,1,0,-1
1584990514.9984877,0,-2,0,2,-2,-4,2,-3
1584990514.9984877,-1,-1,-3,-2,-2,-3,0,-3
1584990515.0001173,-1,-2,-1,-2,-1,0,3,-1
1584990515.0001173,-1,-1,-1,1,0,-1,-1,1
1584990515.0120876,-2,0,0,0,-1,2,1,-1
1584990515.0120876,-1,1,-1,-1,-2,-5,0,-1
1584990515.0209212,2,-3,-1,-1,-3,0,-2,-1
1584990515.0209212,3,0,-1,1,-2,0,0,-2
1584990515.036044,2,1,1,2,1,1,-3,0
1584990515.036044,-5,2,-3,-2,-2,0,3,-1
1584990515.0378046,-1,-1,2,1,-3,0,-3,2
1584990515.0378046,-2,-2,-2,0,0,-1,-1,-4
1584990515.0584764,0,0,2,-1,-1,0,0,0
1584990515.0584764,0,-5,-1,0,-3,0,-2,0
1584990515.0601232,-2,-5,-2,-1,-1,0,2,-1
1584990515.0601232,0,-3,-4,1,-3,3,-1,-2
1584990515.0721545,-1,-1,3,1,0,-1,-1,1
1584990515.0721545,-3,1,-3,-2,1,-1,-1,-2
1584990515.080939,0,-1,1,-2,0,-3,-4,0
1584990515.080939,-1,-1,-1,0,-2,-1,0,-2
1584990515.095884,3,0,1,-2,0,-2,1,-1
1584990515.095884,0,-1,-2,2,-1,-4,0,1
1584990515.0973704,-1,-5,-3,-2,0,-1,1,0
1584990515.0973704,0,0,-3,1,-1,-1,0,0
1584990515.1184983,-2,-3,-1,3,2,-4,-4,0
1584990515.1184983,-3,-1,-3,1,-3,-1,-1,0
1584990515.1198292,-1,-2,1,0,-1,0,0,0
1584990515.1198292,0,-1,-3,2,0,1,1,-3
1584990515.1320932,-1,0,1,0,-1,0,1,-1
1584990515.1320932,-1,-2,0,-1,-1,0,-1,1
1584990515.1412444,-2,0,-1,1,-1,0,-2,0
1584990515.1412444,3,-1,0,1,1,-1,-2,-1
1584990515.1560655,0,-3,-1,-1,-1,-4,-3,1
1584990515.1560655,-1,2,-2,1,2,0,2,-2
1584990515.1587973,0,0,-1,2,1,-1,1,1
1584990515.1587973,-2,1,-4,0,0,0,-3,3
1584990515.1790414,1,-1,1,0,0,-1,0,-1
1584990515.1790414,-1,1,-1,-1,4,0,0,-2
1584990515.1814935,-2,-3,-2,-3,1,0,-1,-1
1584990515.1814935,-4,1,-2,-1,-1,0,-1,-5
1584990515.1920035,1,-3,0,1,0,0,-1,1
1584990515.1920035,-1,0,-2,-2,-2,-1,0,-2
1584990515.2009819,-1,-2,-1,-1,-1,2,-3,-2
1584990515.2009819,0,-2,-2,0,0,0,0,2
1584990515.2161026,-1,2,0,1,2,-2,1,-4
1584990515.2161026,0,-1,-1,-3,1,0,1,-1
1584990515.2189536,-1,1,-1,0,-1,-1,1,-1
1584990515.2189536,-2,-1,-3,-1,3,-3,2,-1
1584990515.2387004,-1,-1,-3,-2,0,3,1,1
1584990515.2387004,-2,-1,2,-1,-3,0,-2,0
1584990515.2405074,0,-1,0,2,0,-2,1,-1
1584990515.2405074,-1,-1,1,2,-1,-1,0,0
1584990515.2520812,1,3,-3,-2,-4,0,1,0
1584990515.2520812,-2,-3,0,-1,-1,-2,-1,0
1584990515.2609057,-1,-3,2,-1,0,1,-2,-1
1584990515.2609057,-2,-1,-2,0,-1,2,-3,0
1584990515.275937,0,-1,-1,-2,-1,1,1,1
1584990515.275937,-1,1,-4,2,2,-2,-1,0
1584990515.277809,-4,0,-3,-2,2,-3,0,-2
1584990515.277809,0,-2,0,-1,0,1,1,2
1584990515.2991128,0,1,0,-2,0,-1,-3,-1
1584990515.2991128,-3,1,-1,-1,1,-1,-1,-2
1584990515.3004675,-1,-1,-3,-4,1,-1,0,-4
1584990515.3004675,0,-1,0,-1,-2,-1,3,-3
1584990515.3120215,1,1,-1,0,-2,-1,-1,-1
1584990515.3120215,-1,0,-1,0,-3,0,-1,-4
1584990515.3209608,2,-3,0,-1,-3,-4,-2,-1
1584990515.3209608,-2,1,-3,3,-1,1,0,0
1584990515.3359504,0,-1,-4,-1,-2,1,-1,0
1584990515.3359504,1,-1,0,1,-2,-2,0,-1
1584990515.3378189,2,0,-2,0,-3,-1,0,0
1584990515.3378189,-2,1,1,-2,0,0,3,1
1584990515.358444,-3,1,0,-4,-4,-1,-1,-4
1584990515.358444,0,2,-1,2,0,-3,2,0
1584990515.3606303,0,-3,3,0,3,0,-3,-3
1584990515.3606303,0,1,0,-1,1,1,-1,0
1584990515.3720982,-1,-4,0,0,-2,1,2,1
1584990515.3720982,0,-2,3,2,-3,-2,0,0
1584990515.3808572,-3,1,-1,1,-1,-2,-3,0
1584990515.3808572,-1,-1,0,0,-1,-3,0,-3
1584990515.3958986,1,1,0,0,3,0,2,3
1584990515.3958986,-2,-1,-1,-1,-1,-1,-4,-1
1584990515.3974285,1,-3,-1,0,2,1,-3,-4
1584990515.3974285,-1,1,1,0,2,1,1,-1
1584990515.4181848,-1,2,-1,-1,-2,2,1,0
1584990515.4181848,-3,2,-4,-1,-3,-1,0,-1
1584990515.4245315,2,1,1,-1,4,-1,-1,1
1584990515.4245315,-3,-3,0,-1,-2,-3,-1,1
1584990515.4320643,1,-1,-1,0,-2,0,-1,0
1584990515.4320643,-1,-1,-2,-1,-1,0,-3,-2
1584990515.4409177,1,-4,-1,-2,-4,-3,2,-1
1584990515.4409177,0,-3,-1,0,1,2,1,-2
1584990515.4559593,1,-1,0,-3,0,3,0,0
1584990515.4559593,0,-2,0,0,-2,-2,-3,-3
1584990515.4576154,-1,-2,-1,-3,-1,1,-1,0
1584990515.4576154,-1,-2,-1,2,0,0,0,0
1584990515.478492,1,0,2,-2,0,0,-1,-1
1584990515.478492,3,1,0,-1,1,0,-1,-1
1584990515.4802773,-1,3,-2,0,-1,1,2,-1
1584990515.4802773,-1,-1,0,0,-1,0,0,0
1584990515.492063,-2,0,-1,1,-1,0,-1,1
1584990515.492063,3,-1,2,2,-1,0,-1,2
1584990515.5008616,-1,-3,-1,0,-1,-1,-1,-1
1584990515.5008616,-1,-2,0,1,1,2,0,-1
1584990515.5159478,0,1,-2,1,-1,-2,0,-2
1584990515.5159478,-1,1,-4,-2,-1,-1,2,0
1584990515.517288,3,1,2,-1,-3,5,0,0
1584990515.517288,3,-4,2,0,-3,0,-1,-1
1584990515.5382388,-2,-1,0,-2,1,-2,0,4
1584990515.5382388,0,1,0,-2,-1,-1,1,0
1584990515.544499,0,0,-3,-1,1,-3,0,1
1584990515.544499,2,-1,-3,1,2,-3,0,-3
1584990515.5520844,-4,4,-1,3,0,-2,0,0
1584990515.5520844,3,1,0,-1,-3,1,0,1
1584990515.5609117,0,-2,0,1,-1,-1,0,-1
1584990515.5609117,0,-2,-2,-1,1,-2,-2,-1
1584990515.5759034,-1,0,-1,-2,-1,-3,-1,-1
1584990515.5759034,-3,-3,-1,-2,1,0,0,2
1584990515.5775552,0,0,0,-1,-2,0,-1,2
1584990515.5775552,1,-1,1,3,0,0,-3,1
1584990515.5983243,-3,-5,-2,-1,-2,2,0,1
1584990515.5983243,0,0,0,-1,2,-3,-2,1
1584990515.5998945,0,-2,-3,1,-3,1,-1,2
1584990515.5998945,1,-1,-1,-1,0,0,-1,-2
1584990515.6208885,2,2,1,-1,-1,2,3,-1
1584990515.6208885,-1,2,0,-1,-1,-1,1,-3
1584990515.6222806,0,-1,-1,-3,1,-1,0,-1
1584990515.6222806,1,-1,-1,0,-1,0,-2,0
1584990515.6359465,0,-2,-1,-3,-3,2,-1,-3
1584990515.6359465,-1,1,0,-1,-3,0,0,-1
1584990515.6376626,1,-1,-3,1,1,-2,-4,0
1584990515.6376626,0,0,-1,-1,1,-1,0,-1
1584990515.6584792,-2,-1,2,-3,-4,-3,1,0
1584990515.6584792,-1,0,0,-2,1,0,-2,-1
1584990515.6605785,0,0,-3,1,-1,2,1,3
1584990515.6605785,-1,0,1,-1,-1,1,-1,2
1584990515.6808712,0,-3,-1,0,0,-1,0,-1
1584990515.6808712,-2,0,-2,-2,2,1,1,0
1584990515.6830258,-2,1,0,1,0,-1,1,-1
1584990515.6830258,-2,1,0,0,1,1,0,-3
1584990515.6959133,-1,2,2,-2,-3,-1,-2,-1
1584990515.6959133,-2,-1,0,0,-2,0,-1,-2
1584990515.697557,0,-1,-1,1,0,0,0,0
1584990515.697557,1,-1,-1,3,0,0,-1,-1
1584990515.7183669,-2,-2,-2,-2,2,1,2,1
1584990515.7183669,1,1,0,0,0,-2,1,1
1584990515.7198281,-2,-1,1,0,3,0,-2,1
1584990515.7198281,-3,2,-1,0,-1,1,0,0
1584990515.740903,-2,0,-2,0,-3,2,-1,0
1584990515.740903,2,-2,-1,-2,-2,0,-3,0
1584990515.7430584,1,-1,0,1,-4,-2,1,0
1584990515.7430584,-2,-1,-3,1,0,0,-3,0
1584990515.7565005,0,-3,0,-1,-2,-1,0,1
1584990515.7565005,-2,-1,-1,2,-2,-2,3,1
1584990515.7581916,-1,-1,1,-3,1,2,1,-1
1584990515.7581916,0,-1,3,0,-4,1,-4,0
1584990515.7787826,-2,1,0,0,2,2,-1,2
1584990515.7787826,-3,-4,-1,0,-1,-2,1,-3
1584990515.7846675,-3,0,-4,-2,1,-1,-1,1
1584990515.7846675,0,-2,-1,1,0,-1,0,-1
1584990515.800944,-2,-1,2,0,-3,0,-3,0
1584990515.800944,1,0,-1,0,1,1,0,1
1584990515.8023221,-2,-2,-2,-3,1,-2,1,0
1584990515.8023221,-1,-2,-3,1,2,-1,-2,0
1584990515.8163412,-2,-3,2,-1,0,0,0,-3
1584990515.8163412,-2,-1,1,1,-2,-1,-2,-3
1584990515.817781,2,0,-1,0,0,1,-2,-1
1584990515.817781,-5,1,-2,-1,-3,-1,4,0
1584990515.8384492,-4,2,0,0,-3,1,-2,-1
1584990515.8384492,0,-1,-1,-3,-4,0,-1,-1
1584990515.8404648,1,-1,-1,-1,0,1,-3,-2
1584990515.8404648,-1,1,-1,2,-1,1,0,-2
1584990515.8608623,-5,0,-2,0,-5,3,-1,-1
1584990515.8608623,0,0,-1,-2,0,3,0,-1
1584990515.8628197,-1,-3,-2,0,-1,0,-3,-1
1584990515.8628197,2,3,0,2,1,-3,-1,-1
1584990515.8752713,1,2,0,-2,-2,0,1,-1
1584990515.8752713,-1,0,1,4,-1,2,-2,-1
1584990515.8820446,0,0,1,-4,1,1,-4,2
1584990515.8820446,-2,-4,-2,-3,-1,-1,-1,-1
1584990515.898367,3,0,-2,3,-1,2,0,-3
1584990515.898367,0,0,-4,1,-2,-4,-1,1
1584990515.9000125,1,-2,0,-1,0,-4,-2,0
1584990515.9000125,3,-1,0,1,0,-1,-3,-2
1584990515.920886,1,1,2,0,-4,-3,-3,0
1584990515.920886,-4,-2,-1,-1,-2,-2,3,-1
1584990515.9222887,0,-2,0,-4,-1,-1,1,-1
1584990515.9222887,-3,1,-1,-2,1,0,0,-1
1584990515.9345257,-3,1,0,-3,1,1,4,0
1584990515.9345257,-1,-1,-3,0,3,0,2,0
1584990515.943425,-2,-1,1,0,-1,-3,-1,0
1584990515.943425,3,-2,-1,1,-1,-3,-1,-1
1584990515.9584439,-1,0,-1,-3,0,-3,-2,-1
1584990515.9584439,1,-1,-1,-1,-2,-1,-2,-2
1584990515.9605412,1,-3,0,1,-2,-1,-1,-1
1584990515.9605412,-1,1,-2,-3,2,-2,-2,0
1584990515.9808917,-3,-1,2,-1,1,-1,0,-2
1584990515.9808917,0,-1,3,1,-1,-1,0,0
1584990515.983049,-1,-2,0,0,-1,0,0,-4
1584990515.983049,0,0,-1,1,-5,0,2,0
1584990515.9945314,-1,-1,1,-2,-4,0,0,-4
1584990515.9945314,0,-1,-5,1,0,3,-2,-2
1584990516.0041168,-1,-2,-1,-1,3,-1,-2,1
1584990516.0041168,-1,-1,-1,2,0,-1,-1,-2
1584990516.0184696,-1,0,-3,0,-3,1,0,3
1584990516.0184696,-3,-3,0,-1,0,0,-4,1
1584990516.0198925,-1,0,0,-1,0,-3,-2,0
1584990516.0198925,0,1,3,0,0,2,4,-1
1584990516.0409029,1,1,1,-2,-1,0,-1,-3
1584990516.0409029,1,-4,3,2,0,0,0,-1
1584990516.0429468,-2,-1,0,0,-2,-3,4,0
1584990516.0429468,1,0,-1,2,1,0,0,-1
1584990516.054559,-2,-1,-1,1,3,-4,0,-1
1584990516.054559,0,0,0,1,-1,-1,0,-2
1584990516.0633945,1,-2,0,-1,-3,1,-1,1
1584990516.0633945,0,-1,0,-2,-2,-1,-1,-1
1584990516.0783634,1,0,0,-1,-3,1,0,0
1584990516.0783634,0,-3,-1,-4,0,0,0,1
1584990516.0801125,-1,-1,2,0,2,0,0,-3
1584990516.0801125,2,-2,3,1,-3,-1,0,-1
1584990516.1008399,0,1,0,1,-1,-1,-1,0
1584990516.1008399,1,0,0,0,-1,-4,1,0
1584990516.1022692,0,-1,-1,-1,-4,-1,-4,1
1584990516.1022692,1,0,-1,-1,-2,1,1,-1
1584990516.1145034,0,-1,-2,2,0,-3,-2,2
1584990516.1145034,2,-3,0,-4,2,0,-2,-2
1584990516.1239963,-1,-2,1,0,-4,-2,-2,-2
1584990516.1239963,2,2,0,-3,-3,2,0,-1
1584990516.138419,1,1,-1,0,1,1,0,0
1584990516.138419,-1,0,-1,-1,-1,1,1,2
1584990516.1406415,-1,-1,-2,-3,-2,-3,0,-1
1584990516.1406415,0,1,0,-1,-1,1,0,1
1584990516.1608317,1,-2,-1,-2,0,0,-3,-3
1584990516.1608317,-2,-2,-3,-1,1,-1,0,1
1584990516.1627927,-1,0,1,-1,0,-1,0,1
1584990516.1627927,0,-3,-1,-1,0,0,1,-1
1584990516.1744878,-3,0,1,-1,-2,-2,-2,0
1584990516.1744878,0,0,-1,-2,2,-3,-1,-1
1584990516.1833885,0,-1,1,0,-1,-1,-1,1
1584990516.1833885,2,-3,-2,-1,-1,0,0,2
1584990516.1983466,-1,1,-1,1,-3,-1,2,-1
1584990516.1983466,2,-3,-2,2,-1,-4,-1,0
1584990516.1999834,-2,-4,0,-2,-1,-1,-4,0
1584990516.1999834,-2,-2,2,-2,1,1,1,0
1584990516.2208545,-2,1,0,2,-3,1,-2,-1
1584990516.2208545,0,-1,0,0,-1,-1,-1,1
1584990516.222275,-1,0,1,0,1,0,-3,-2
1584990516.222275,1,-1,-1,1,-1,-1,-1,1
1584990516.2344892,0,-1,0,-1,2,0,0,0
1584990516.2344892,-1,-4,0,-1,2,-2,-2,-4
1584990516.2433891,-1,-2,1,-4,0,-1,-1,1
1584990516.2433891,4,0,-2,-2,-1,3,1,1
1584990516.2584205,0,0,-2,0,-3,-1,1,0
1584990516.2584205,-1,-1,-3,2,-3,0,1,-1
1584990516.2604034,-1,0,-3,0,2,1,2,-1
1584990516.2604034,1,-1,-3,0,-3,0,-2,0
1584990516.2808473,1,-1,0,1,0,-1,3,-1
1584990516.2808473,-1,-1,0,0,2,1,1,-3
1584990516.282932,-1,1,0,0,0,1,-2,2
1584990516.282932,-3,-1,-1,-1,0,-1,0,-2
1584990516.2944956,3,2,-1,0,-1,-5,-4,0
1584990516.2944956,0,0,0,-2,-3,1,3,-1
1584990516.3034313,0,-1,-1,4,0,2,0,-3
1584990516.3034313,-1,-2,0,-1,-1,-3,3,1
1584990516.318345,-3,2,-1,2,-2,-4,1,-1
1584990516.318345,1,-1,-2,-2,-1,0,-1,0
1584990516.320062,0,2,2,0,0,2,-2,-3
1584990516.320062,-1,0,-1,0,3,0,0,1
1584990516.3408518,2,0,-1,-1,2,1,-1,-2
1584990516.3408518,-1,0,-1,-2,1,0,0,-2
1584990516.3429234,-2,-1,-1,1,-2,-1,3,-5
1584990516.3429234,1,-3,-3,-4,-1,-1,1,-2
1584990516.354511,-1,2,-4,-4,1,3,-3,-1
1584990516.354511,0,-3,1,-2,-1,1,2,-1
1584990516.3695452,-1,0,0,0,-3,0,-3,-4
1584990516.3695452,-1,-2,0,0,1,-1,0,2
1584990516.3790157,-5,1,0,1,-1,-1,1,-1
1584990516.3790157,0,-3,2,-1,3,-2,2,2
1584990516.380637,-1,1,-3,3,-4,-3,-2,1
1584990516.380637,-1,-2,0,-1,0,0,1,-3
1584990516.4008663,-1,0,-3,-1,0,1,1,1
1584990516.4008663,1,-1,0,1,-1,0,1,-2
1584990516.4022956,-2,-1,2,-1,-1,-1,-3,0
1584990516.4022956,-2,-1,-1,-4,0,-2,1,0
1584990516.414529,-1,0,-1,-1,-2,0,-1,-1
1584990516.414529,0,-2,-3,-1,2,1,-2,2
1584990516.4234369,-1,-3,-1,-3,-2,1,-1,0
1584990516.4234369,0,-1,-2,-4,1,-3,-3,-2
1584990516.4384236,0,-1,-1,0,2,-2,0,0
1584990516.4384236,-1,-1,-3,0,2,-2,1,0
1584990516.440644,0,-2,-2,1,-3,-1,-1,-1
1584990516.440644,3,-1,0,-2,-6,0,-1,-3
1584990516.460881,3,0,-2,-4,0,0,2,0
1584990516.460881,-2,-1,-1,-1,0,0,-2,-3
1584990516.4628549,1,-1,-3,3,-1,2,0,-1
1584990516.4628549,0,-1,0,-2,2,2,-3,1
1584990516.474587,-1,-2,-1,-2,1,-3,0,0
1584990516.474587,-3,-2,-1,2,-1,1,0,0
1584990516.4833968,-2,3,0,0,-3,0,0,-1
1584990516.4833968,0,0,0,0,-4,-2,1,-1
1584990516.4981353,-2,0,-1,-3,1,-1,-1,-3
1584990516.4981353,-1,-1,-2,-1,1,-2,-1,2
1584990516.5044749,0,-1,0,-3,-1,1,0,0
1584990516.5044749,2,-4,0,-1,4,0,-1,-1
1584990516.520835,0,0,-5,-4,1,1,1,1
1584990516.520835,-2,-1,0,-1,-3,-1,-2,0
1584990516.5222816,1,-3,0,0,-2,0,-2,-1
1584990516.5222816,-1,1,0,0,-2,-1,2,1
1584990516.5345159,-2,-4,-3,0,-2,-3,1,0
1584990516.5345159,-1,-3,-2,1,-5,0,0,1
1584990516.5433924,-2,-3,1,-4,-2,-1,-1,-1
1584990516.5433924,-1,2,-2,4,3,-1,0,-1
1584990516.5584273,1,1,2,-1,-4,-1,0,1
1584990516.5584273,0,-3,0,-1,2,0,1,0
1584990516.5604112,-1,-1,-2,-2,3,3,0,-2
1584990516.5604112,-1,-1,0,0,1,0,0,-2
1584990516.580842,-1,-2,0,-3,-1,2,0,3
1584990516.580842,-5,0,1,0,-1,-3,-1,-1
1584990516.5825827,2,-1,-4,0,-1,1,0,0
1584990516.5825827,-1,-1,-1,2,-1,2,0,0
1584990516.6034355,1,0,1,-2,1,1,-1,-1
1584990516.6034355,2,-2,-3,0,-5,-2,-4,0
1584990516.60514,0,0,-2,0,-1,-1,-1,1
1584990516.60514,-1,-1,-1,-3,-4,1,2,0
1584990516.6195183,1,2,-1,1,1,-3,-2,-1
1584990516.6195183,0,-1,-1,1,3,-2,-2,1
1584990516.6209216,-1,-2,2,-1,0,-3,0,-1
1584990516.6209216,0,-2,-2,0,1,0,-1,3
1584990516.6406405,3,-2,0,0,3,-1,-2,-1
1584990516.6406405,0,-1,-1,-1,-2,-1,-1,-3
1584990516.6469724,3,-3,-1,0,-1,1,-4,0
1584990516.6469724,-1,1,-1,-2,-1,0,2,0
1584990516.6644,2,1,0,-3,-3,2,1,1
1584990516.6644,0,1,2,-1,0,-3,-2,2
1584990516.6658792,0,-2,-2,-2,0,0,-1,-1
1584990516.6658792,1,0,-1,-3,-1,-1,-1,-3
1584990516.678277,-1,-1,-3,-1,2,1,-1,-3
1584990516.678277,-1,-3,0,-1,1,-2,-2,-2
1584990516.6798968,-1,-2,-2,-1,4,0,2,-3
1584990516.6798968,1,2,-1,-2,2,-1,0,-2
1584990516.7008424,2,2,-2,1,-1,0,-1,-2
1584990516.7008424,-2,0,-1,-2,0,-2,1,-1
1584990516.7022018,-1,0,0,-2,0,1,1,-1
1584990516.7022018,-2,0,0,1,-3,-2,0,1
1584990516.7236314,-4,-4,-1,-4,-1,2,1,-3
1584990516.7236314,1,0,-2,2,-5,0,0,-3
1584990516.7255802,0,-3,-1,0,-1,-2,-4,1
1584990516.7255802,-1,-3,-1,1,2,-3,-4,0
1584990516.7386081,-1,0,1,2,2,0,1,-3
1584990516.7386081,-2,1,0,-1,-1,-2,-1,1
1584990516.7408874,-1,-4,0,0,-1,-3,-2,1
1584990516.7408874,-3,0,-2,0,-2,1,1,-2
1584990516.760899,-1,-5,1,0,1,2,-4,2
1584990516.760899,-1,1,-1,2,0,-1,2,3
1584990516.7631032,0,-5,0,0,2,0,-1,-3
1584990516.7631032,-1,1,3,1,-5,-3,-3,-1
1584990516.7833586,-3,1,-1,0,-1,1,0,0
1584990516.7833586,-2,-1,-2,0,1,1,-1,-2
1584990516.785067,0,-2,1,-2,-1,-4,0,1
1584990516.785067,0,1,0,-1,0,0,0,0
1584990516.7970285,-1,1,-1,1,1,-1,-1,-1
1584990516.7970285,-2,-2,-3,1,-2,1,1,1
1584990516.8058598,1,-1,-2,1,2,-1,2,1
1584990516.8058598,0,-1,-1,-1,-1,-1,-1,-1
1584990516.820884,-1,1,-1,1,-5,-1,0,-1
1584990516.820884,1,-3,-1,-2,-4,0,2,0
1584990516.8222919,0,0,1,-1,-3,1,-1,-1
1584990516.8222919,1,0,0,0,-1,-1,1,-1
1584990516.851319,2,2,0,1,3,0,-4,-1
1584990516.851319,-3,0,-3,1,-2,1,-2,-1
1584990516.8533292,-1,-1,0,1,3,-2,-2,0
1584990516.8533292,-3,0,2,-1,2,0,-2,0
1584990516.8580027,0,2,-3,-3,-3,-2,0,2
1584990516.8580027,-3,-2,1,0,-5,0,0,1
1584990516.8658834,0,-3,1,-2,-4,-4,-2,0
1584990516.8658834,1,1,1,-3,-1,0,2,2
1584990516.8808062,-2,-2,0,1,-4,3,-1,-3
1584990516.8808062,0,0,1,-1,0,-1,-3,3
1584990516.8827186,2,-4,-1,0,-1,-2,3,-1
1584990516.8827186,-2,-2,0,0,-1,0,0,0
1584990516.9034214,-3,1,-2,-2,-1,-1,0,0
1584990516.9034214,-2,-2,-4,1,0,-2,1,0
1584990516.9051452,-1,-4,4,0,0,-2,0,-3
1584990516.9051452,-1,0,1,1,0,0,0,0
1584990516.9258652,-3,0,0,0,-2,-2,1,-1
1584990516.9258652,3,-2,-3,-3,0,-1,2,0
1584990516.9274812,-1,-2,1,-2,-2,-3,2,-1
1584990516.9274812,1,1,-3,-2,-5,-1,2,-2
1584990516.9408617,-1,-3,-2,2,1,-1,0,-1
1584990516.9408617,-1,1,-1,1,3,0,-1,-1
1584990516.9422827,1,1,-1,0,1,-1,-1,-2
1584990516.9422827,-3,1,0,2,0,1,1,-3
1584990516.9709005,0,-1,1,0,-1,-3,-3,-2
1584990516.9709005,-3,-3,1,-3,2,-2,0,0
1584990516.9726317,1,0,0,-4,-1,-1,-1,-1
1584990516.9726317,1,0,-4,2,2,0,-3,-1
1584990516.9770617,0,0,-1,-3,2,1,1,-2
1584990516.9770617,2,-1,0,0,-1,0,1,-1
1584990516.9858294,1,1,-1,0,-3,0,-1,2
1584990516.9858294,-2,-3,1,-3,-2,0,0,0
1584990517.0008502,2,0,2,1,-1,2,3,-1
1584990517.0008502,-2,-2,-1,-3,1,0,1,-1
1584990517.0028925,-3,-3,0,1,-1,0,1,0
1584990517.0028925,2,-1,-1,0,0,0,-3,0
1584990517.0234609,-4,0,1,-2,-1,0,3,0
1584990517.0234609,-1,-1,-4,0,1,1,1,-1
1584990517.0251787,2,-2,1,0,0,2,-3,-1
1584990517.0251787,0,0,0,-2,-2,-2,1,-1
1584990517.037076,-1,3,1,-1,-1,-3,-4,-1
1584990517.037076,0,-1,0,0,-2,-2,0,0
1584990517.0458908,-3,1,0,-3,0,-3,-1,0
1584990517.0458908,0,0,1,-1,-1,0,1,-1
1584990517.060867,1,-1,0,-1,0,-2,0,-5
1584990517.060867,-1,1,3,0,-1,1,-2,3
1584990517.0629027,0,1,0,-1,-4,0,-1,-1
1584990517.0629027,0,-2,-1,-1,2,2,-1,1
1584990517.0833614,1,3,0,-1,-2,-5,-1,0
1584990517.0833614,0,3,-1,0,-1,0,0,-1
1584990517.0849931,3,4,1,2,1,2,0,0
1584990517.0849931,1,0,-2,-1,0,0,-2,2
1584990517.0969625,-1,-4,-3,0,-1,-2,0,0
1584990517.0969625,-1,0,-2,-1,0,0,-2,-3
1584990517.1058629,-2,0,2,-4,-1,2,-3,1
1584990517.1058629,-6,-3,1,0,2,1,-1,1
1584990517.1208296,0,0,2,-2,-2,1,4,-3
1584990517.1208296,0,-4,-2,-1,-1,-2,-2,0
1584990517.1222107,1,1,0,-4,0,-2,-2,-2
1584990517.1222107,0,0,-1,-1,-2,0,-1,-1
1584990517.1435804,1,2,1,-2,0,1,-2,-1
1584990517.1435804,-1,-4,0,-1,-1,-1,0,-2
1584990517.1460562,1,-1,1,1,-1,1,0,0
1584990517.1460562,1,2,-2,0,2,-1,0,-1
1584990517.1569936,0,-2,0,-2,-1,0,0,0
1584990517.1569936,-2,-3,0,-1,0,0,1,-3
1584990517.1658933,-1,-2,1,1,2,-1,-2,-1
1584990517.1658933,-2,0,0,-4,0,-1,-2,1
1584990517.1807947,-1,2,-3,-1,-2,0,0,0
1584990517.1807947,-2,-4,-2,0,-3,2,1,-1
1584990517.1837232,-2,-2,-1,-3,-1,-2,-3,-1
1584990517.1837232,0,0,-4,-1,0,-1,-2,0
1584990517.2110224,3,-3,0,1,0,-2,-1,1
1584990517.2110224,0,-2,1,3,0,1,1,-3
1584990517.2137632,-3,0,0,1,-2,-1,-1,-1
1584990517.2137632,3,1,-5,-1,-2,0,2,-2
1584990517.2174945,0,0,2,0,-3,-2,1,0
1584990517.2174945,0,-3,0,0,-2,2,-3,-1
1584990517.2272704,-1,-2,1,-2,3,1,-1,-3
1584990517.2272704,-1,0,0,-1,0,0,-3,-2
1584990517.2407715,2,2,0,2,3,-2,-1,-1
1584990517.2407715,-2,1,-1,0,-1,-3,-5,-2
1584990517.2426574,2,0,-2,3,1,0,-2,0
1584990517.2426574,-1,-1,-1,-2,-5,0,-3,0
1584990517.2633007,2,1,-3,-2,-3,-1,0,2
1584990517.2633007,-1,-3,-3,-1,0,2,2,-2
1584990517.2649894,0,3,0,2,1,-1,-3,-1
1584990517.2649894,-3,-1,0,-1,0,0,-3,1
1584990517.276984,0,1,1,0,0,0,1,-1
1584990517.276984,-5,1,-2,-1,-3,-1,-1,-1
1584990517.28586,1,-2,-1,3,-1,1,1,-1
1584990517.28586,-3,-2,-2,-1,1,-1,-4,1
1584990517.300813,1,0,0,0,-2,-5,-3,-1
1584990517.300813,1,0,2,-1,-3,-3,-1,-1
1584990517.3029888,1,2,-1,-1,-1,-2,-2,1
1584990517.3029888,-1,1,3,-4,1,-1,-1,1
1584990517.3233798,-4,0,-1,-1,3,-1,2,2
1584990517.3233798,-5,-3,-1,-2,-2,1,-1,-1
1584990517.3251066,-1,-1,1,0,2,-2,-2,1
1584990517.3251066,-1,0,0,-3,-1,-1,-1,-1
1584990517.3369875,2,-2,0,0,0,-2,-2,-3
1584990517.3369875,-2,0,0,1,-1,0,0,-5
1584990517.3458095,3,-3,-3,-2,3,1,-3,0
1584990517.3458095,1,0,-3,0,1,0,-2,2
1584990517.3607976,-2,0,-2,1,-3,0,-2,1
1584990517.3607976,-1,-3,0,1,-3,0,-1,0
1584990517.3626015,1,2,1,-1,-1,-3,-4,-1
1584990517.3626015,0,2,0,-1,-1,-1,-4,-1
1584990517.3833337,-3,-1,1,3,-1,3,0,3
1584990517.3833337,2,-1,4,1,-2,-1,1,-3
1584990517.3850138,-3,-1,1,1,-1,-2,1,0
1584990517.3850138,0,0,-1,0,0,2,1,0
1584990517.396989,2,-2,1,2,-2,0,2,2
1584990517.396989,-3,0,1,1,-2,0,-3,-2
1584990517.4058487,0,1,0,-1,-2,-1,1,0
1584990517.4058487,0,1,-1,-1,-2,-3,-1,-3
1584990517.4208355,-2,-1,2,1,5,2,-1,-1
1584990517.4208355,-1,-2,-2,-5,0,1,-1,1
1584990517.4222443,1,1,-2,-3,-1,-1,0,-2
1584990517.4222443,0,3,-1,1,-2,0,-3,0
1584990517.4440806,0,-1,2,-3,-1,-3,1,1
1584990517.4440806,-1,0,-1,0,0,-2,3,-2
1584990517.445963,0,-5,-4,-1,-4,-1,-1,-1
1584990517.445963,-1,1,-2,-1,-2,2,-2,-1
1584990517.4570646,2,1,2,-1,1,-2,0,0
1584990517.4570646,-3,-2,1,-1,-3,-1,0,-3
1584990517.4658253,2,-2,-1,-1,2,1,0,-1
1584990517.4658253,0,0,0,-2,0,0,-2,-3
1584990517.4801059,1,2,0,0,-1,-1,1,-2
1584990517.4801059,-1,2,-2,-1,1,0,2,-1
1584990517.481392,-3,1,2,1,-2,1,-1,-3
1584990517.481392,1,1,-1,0,-2,-1,1,-3
1584990517.5026155,2,1,1,0,-3,-1,0,1
1584990517.5026155,-1,-2,-1,1,-2,-2,-3,1
1584990517.5035806,3,1,-1,0,-4,-1,-1,-2
1584990517.5035806,0,-1,0,-1,-1,-2,1,1
1584990517.5251925,1,-1,-2,0,2,0,-2,2
1584990517.5251925,-5,-1,1,-1,1,3,2,1
1584990517.5268526,-1,-1,-1,-1,0,-2,-2,-4
1584990517.5268526,0,-1,1,-1,1,-1,-1,-2
1584990517.5401638,0,-3,0,1,2,2,1,-1
1584990517.5401638,1,2,0,1,2,-2,-1,0
1584990517.5410628,-1,-3,-1,-2,-1,-2,-2,0
1584990517.5410628,1,-2,-1,-3,-3,-2,-3,2
1584990517.5626,0,-1,-4,-2,-1,0,1,1
1584990517.5626,-2,-2,-1,-3,-1,-2,-2,-3
1584990517.5639024,0,-3,0,-3,-3,-1,3,0
1584990517.5639024,0,1,3,-3,-1,-1,-1,-1
1584990517.5850363,2,-1,0,-1,1,1,-1,-2
1584990517.5850363,0,-1,0,2,-4,-1,-2,-1
1584990517.586169,1,-1,-2,3,0,0,0,1
1584990517.586169,-3,0,0,-2,1,0,-1,-3
1584990517.6001153,-3,0,-5,-1,1,-5,0,-2
1584990517.6001153,-3,-1,1,-3,-1,0,2,2
1584990517.6013238,0,1,0,-2,1,-2,2,0
1584990517.6013238,0,-2,2,-3,-3,0,2,-1
1584990517.6226854,-3,-4,0,2,-6,-3,1,1
1584990517.6226854,0,-2,2,-2,-1,3,-1,1
1584990517.6241193,3,-1,-1,0,1,0,-2,1
1584990517.6241193,2,4,-2,2,1,-3,1,1
1584990517.645129,-3,-1,-2,-2,3,2,0,0
1584990517.645129,2,1,0,-1,-1,-3,1,-1
1584990517.6464317,1,0,2,-3,2,0,-2,-3
1584990517.6464317,2,-3,1,0,1,1,-2,2
1584990517.6601024,2,-2,-1,1,2,-1,-1,1
1584990517.6601024,0,2,-1,-4,1,-3,-1,2
1584990517.661401,-1,-1,-2,2,-1,0,1,-1
1584990517.661401,-4,0,0,-1,1,-1,-2,2
1584990517.6825817,1,-2,0,2,2,-1,-1,0
1584990517.6825817,1,-5,1,2,0,-1,0,4
1584990517.6837945,0,-3,-3,0,0,2,-1,-2
1584990517.6837945,0,0,0,-2,0,0,0,-1
1584990517.7050977,-5,-3,1,0,-2,-1,0,0
1584990517.7050977,0,-1,-1,3,-3,-1,3,2
1584990517.7059321,-2,-2,1,0,-5,-2,1,-1
1584990517.7059321,1,0,-3,0,0,-3,1,1
1584990517.7198863,2,-1,1,2,-2,-1,1,-1
1584990517.7198863,1,-2,-2,0,0,1,1,3
1584990517.7276704,2,-1,0,-2,0,-1,-1,0
1584990517.7276704,-1,1,2,-2,-3,2,-3,0
1584990517.7426775,0,-3,0,0,-2,-1,0,-1
1584990517.7426775,-1,1,-1,-1,0,0,1,-3
1584990517.744059,0,-1,-4,0,3,-2,-1,3
1584990517.744059,0,0,-2,-1,-3,1,0,-1
1584990517.765156,-3,-2,1,0,-3,-2,2,0
1584990517.765156,-3,-3,-2,0,0,0,1,1
1584990517.7663965,0,1,-1,0,-3,-3,-2,1
1584990517.7663965,1,-2,0,2,2,-1,-2,0
1584990517.7801335,0,-2,0,-2,-1,-3,0,0
1584990517.7801335,2,-3,0,1,-2,-1,-4,-3
1584990517.7813213,0,1,2,1,2,0,-3,0
1584990517.7813213,0,1,2,0,0,4,0,-2
1584990517.8026094,-1,-3,-1,0,0,2,1,-1
1584990517.8026094,1,1,-1,-1,-1,0,0,0
1584990517.8034828,-1,0,-2,-2,-1,2,-1,1
1584990517.8034828,2,0,0,-3,-3,1,-3,-1
1584990517.825193,-1,-2,-1,0,3,1,0,-1
1584990517.825193,-1,-4,1,-1,1,-2,-2,1
1584990517.82686,0,0,0,2,0,0,-2,-3
1584990517.82686,0,3,0,-1,1,0,3,-1
1584990517.840096,2,-1,2,0,0,-1,-2,-2
1584990517.840096,-5,-5,1,-3,-4,1,3,0
1584990517.840943,0,0,-1,-3,-3,0,-1,-3
1584990517.840943,2,1,2,-1,-1,0,4,1
1584990517.862671,-2,-2,0,-1,-3,-1,-1,-1
1584990517.862671,-2,1,2,1,-2,3,0,-3
1584990517.8639872,-2,1,-1,2,0,-3,-2,-1
1584990517.8639872,-2,-1,-1,-4,1,0,-1,-2
1584990517.8850832,-2,0,0,-1,0,-1,0,-3
1584990517.8850832,2,-2,-1,-1,-2,-3,-4,-2
1584990517.8862813,-2,2,1,0,-3,1,0,0
1584990517.8862813,-2,-1,1,0,0,-1,1,0
1584990517.9000974,-2,0,-1,-1,1,1,1,-1
1584990517.9000974,0,2,-1,0,-3,3,2,0
1584990517.9013906,2,-2,-1,1,-2,1,3,-1
1584990517.9013906,-3,-2,0,-2,-2,-3,1,0
1584990517.9231877,2,-1,0,0,-6,2,0,1
1584990517.9231877,3,0,-1,0,-2,-1,-1,-1
1584990517.9245057,-1,-2,0,-4,-4,-1,3,1
1584990517.9245057,2,1,1,-3,0,0,2,1
1584990517.9452398,-1,2,0,1,0,-1,0,0
1584990517.9452398,-1,-2,-1,-3,0,3,0,-1
1584990517.9470196,0,-1,1,2,-2,0,-1,0
1584990517.9470196,1,0,-3,0,-2,0,0,-1
1584990517.9601297,0,-1,0,-3,-2,-5,-1,1
1584990517.9601297,0,1,2,2,-2,0,-5,-1
1584990517.9614031,0,-2,0,0,-1,-1,-1,1
1584990517.9614031,-3,-1,-1,0,3,0,0,-2
1584990517.9826248,-1,-2,0,1,-3,-1,-1,-1
1584990517.9826248,-1,-5,-2,0,3,2,2,2
1584990517.983945,0,1,0,-3,4,0,1,-1
1584990517.983945,0,1,-2,-1,-1,1,0,-3
1584990518.0050886,-1,3,-4,0,-2,-3,1,-1
1584990518.0050886,-1,0,-2,3,-2,-2,-4,0
1584990518.005969,0,-1,-1,-1,-1,0,-2,3
1584990518.005969,-1,-1,-2,2,0,1,-1,0
1584990518.0201283,-2,-1,3,2,-1,0,0,1
1584990518.0201283,-4,-3,-1,-4,0,-2,-2,-4
1584990518.0209796,0,0,0,-1,3,-2,2,-1
1584990518.0209796,1,-1,2,-3,-1,0,0,0
1584990518.0521848,-1,0,-1,-1,1,0,-1,1
1584990518.0521848,-2,1,-2,-1,-1,1,-1,-2
1584990518.0534968,1,1,0,-3,1,-1,0,0
1584990518.0534968,1,-1,-1,3,1,-3,1,-2
1584990518.0651488,-2,0,-1,-3,0,-3,0,1
1584990518.0651488,0,0,1,-2,-1,1,-4,1
1584990518.0659697,-1,0,0,1,-3,0,-3,1
1584990518.0659697,0,-1,-4,-2,-6,-2,-2,-4
1584990518.0794785,0,-3,1,0,-1,-3,0,-3
1584990518.0794785,-5,0,1,1,2,-1,-1,-3
1584990518.0876586,3,-1,-1,-1,-1,1,2,-3
1584990518.0876586,-2,-1,-3,-2,-1,0,-2,-2
1584990518.1026175,2,2,2,-2,2,-1,0,-2
1584990518.1026175,1,1,1,-3,0,-2,-5,-2
1584990518.1039045,0,2,1,-2,-1,-1,1,0
1584990518.1039045,-1,0,0,-2,-2,-2,-5,2
1584990518.1251771,1,-2,-3,-1,3,-2,-1,-2
1584990518.1251771,0,0,0,2,2,-2,2,-3
1584990518.1267877,0,0,0,2,-1,0,-4,-3
1584990518.1267877,2,1,-1,1,-1,1,0,-3
1584990518.1393723,-1,0,1,-3,-1,-1,-3,0
1584990518.1393723,-3,-2,-2,2,-5,-4,-1,0
1584990518.147565,2,-5,-1,0,2,1,1,1
1584990518.147565,2,1,3,1,2,1,0,-1
1584990518.16267,1,0,-1,2,0,0,0,1
1584990518.16267,-2,-1,0,-1,-3,0,2,-4
1584990518.163934,-2,-1,3,-1,-1,-1,-2,-2
1584990518.163934,0,2,-1,-1,0,0,0,0
1584990518.1850848,-3,1,-1,1,-1,0,0,0
1584990518.1850848,-3,-4,-2,0,1,-1,5,-1
1584990518.186371,2,-2,0,-2,1,-1,1,3
1584990518.186371,1,1,0,1,-2,0,-2,-2
1584990518.1993923,1,0,2,-1,-2,-2,-2,-1
1584990518.1993923,0,-1,-3,3,-1,0,0,1
1584990518.2075958,-1,-1,1,1,-4,1,0,1
1584990518.2075958,-2,0,2,0,-2,3,1,-1
1584990518.2226596,2,-2,0,-2,1,0,-1,0
1584990518.2226596,-2,2,1,1,-2,-2,0,0
1584990518.2240415,3,0,-1,2,2,-1,1,-1
1584990518.2240415,2,1,-2,-1,1,-2,-2,-2
1584990518.2451868,2,-1,1,2,1,-4,-1,-1
1584990518.2451868,-1,0,1,-1,1,1,-2,0
1584990518.2463992,-2,0,2,0,-1,0,-1,-1
1584990518.2463992,1,2,-1,0,-1,-3,3,1
1584990518.2683108,-1,-3,-1,0,-1,-1,1,-1
1584990518.2683108,0,0,0,-2,2,-1,-2,0
1584990518.2696264,2,2,1,-1,0,0,1,1
1584990518.2696264,1,0,-1,2,2,0,-1,0
1584990518.2825963,1,-3,-1,0,-2,-3,-1,-3
1584990518.2825963,1,1,0,-1,-1,0,-1,-3
1584990518.283901,1,0,1,-2,-3,-1,0,0
1584990518.283901,-2,2,1,-1,-1,0,1,0
1584990518.305077,0,-3,-1,-1,-1,1,0,-4
1584990518.305077,-2,1,1,2,1,-2,-1,-4
1584990518.3059309,1,0,-1,2,1,-1,2,0
1584990518.3059309,0,0,0,-2,-2,0,0,0
1584990518.3282678,-1,-4,0,-2,-1,2,0,-1
1584990518.3282678,0,2,-2,-3,-1,-1,-1,0
1584990518.3298373,-5,-2,-2,-1,0,0,1,-1
1584990518.3298373,-3,0,2,1,-2,1,0,-2
1584990518.3426607,0,-4,-1,1,-1,0,0,-1
1584990518.3426607,0,1,-3,1,-2,-2,-1,0
1584990518.3440914,-1,1,2,1,-1,-2,2,-2
1584990518.3440914,-2,1,-1,0,3,1,-1,0
1584990518.365104,-1,1,-4,3,1,1,2,-3
1584990518.365104,-1,-2,-1,0,-3,1,1,0
1584990518.3663166,-1,-1,-1,-3,-4,-1,-2,0
1584990518.3663166,-2,-2,0,-3,-3,-2,-4,-1
1584990518.3882833,-6,-1,-4,0,-1,1,-1,-1
1584990518.3882833,0,-2,-3,1,2,-3,-3,2
1584990518.3895736,0,1,-1,-5,2,2,0,-2
1584990518.3895736,-2,0,2,1,0,1,-2,1
1584990518.4026406,0,-1,-1,0,1,0,-1,-1
1584990518.4026406,0,-1,3,-2,2,2,2,-3
1584990518.4035413,-1,-3,0,0,-3,-1,-3,-1
1584990518.4035413,0,-2,1,0,-3,0,-2,0
1584990518.4251375,1,-3,-4,0,-1,1,0,1
1584990518.4251375,0,1,0,2,1,-1,-2,0
1584990518.4267526,1,-1,-1,0,1,0,-1,-1
1584990518.4267526,-2,-2,1,-2,-1,2,0,-1
1584990518.4482496,-1,-2,-3,0,-5,-2,2,1
1584990518.4482496,1,-3,2,-1,-5,-3,0,-1
1584990518.4495652,0,-1,0,0,0,0,-2,-1
1584990518.4495652,-2,1,-1,0,2,1,-2,-1
1584990518.4626102,-1,-2,-2,-1,-2,-1,0,-1
1584990518.4626102,1,-2,2,2,-1,0,-6,-1
1584990518.4639745,1,1,1,0,0,-1,1,0
1584990518.4639745,-1,3,-2,-1,-1,-1,-3,-3
1584990518.4850974,0,-1,1,2,-1,-1,1,-2
1584990518.4850974,1,1,-5,-1,-2,-2,0,0
1584990518.486359,0,-2,-1,-2,-1,1,1,1
1584990518.486359,-1,0,-2,0,0,0,-1,-3
1584990518.5082772,0,-1,0,-3,0,-1,-3,-1
1584990518.5082772,-2,-2,-1,-2,4,0,-1,-2
1584990518.5096178,-1,0,3,-2,3,0,-3,-1
1584990518.5096178,1,0,0,-2,-3,-1,0,-1
1584990518.5226378,0,1,-1,-1,1,-3,0,2
1584990518.5226378,2,-1,2,-2,-4,-1,0,-1
1584990518.5239701,2,0,2,0,-3,0,0,-2
1584990518.5239701,1,2,-1,2,0,-1,4,-1
1584990518.5450895,-1,0,-2,-2,1,-3,-2,0
1584990518.5450895,-2,2,0,0,1,2,1,-1
1584990518.5463393,-5,-1,-1,1,-3,-4,0,-2
1584990518.5463393,-3,-1,0,0,-4,-2,-2,1
1584990518.568226,-1,-1,-2,0,-2,2,-1,-3
1584990518.568226,0,0,-2,1,0,1,0,-2
1584990518.5695372,-1,1,0,0,2,2,-5,-4
1584990518.5695372,0,-2,1,-2,1,0,1,0
1584990518.582509,-1,-2,2,0,1,-1,0,0
1584990518.582509,1,0,2,0,3,1,-1,0
1584990518.5836031,-2,1,1,0,-2,-3,0,-1
1584990518.5836031,-1,2,-1,-3,-3,-1,-3,-3
1584990518.6050773,1,2,3,-1,-2,-3,-2,0
1584990518.6050773,-1,-4,1,0,0,1,-1,1
1584990518.6062894,1,0,-2,-1,0,-3,2,-1
1584990518.6062894,-1,-1,-2,-1,-1,-2,1,-3
1584990518.62828,0,-3,3,-1,0,-1,-3,-3
1584990518.62828,1,4,1,0,-3,0,-2,-4
1584990518.629637,0,2,-4,0,0,-1,3,-1
1584990518.629637,0,-3,0,1,-1,-3,0,-1
1584990518.6426232,0,-3,-1,0,0,1,-1,0
1584990518.6426232,2,0,-1,1,0,0,-1,-1
1584990518.6439216,0,-2,2,1,3,-2,-4,-1
1584990518.6439216,-1,-1,1,2,-1,2,-2,-1
1584990518.6651223,0,3,-2,-1,0,-1,-2,0
1584990518.6651223,1,-1,0,-2,-3,-1,-1,2
1584990518.6660163,-1,-4,-1,-2,-5,-2,0,2
1584990518.6660163,1,2,-1,0,-5,-1,0,2
1584990518.6882923,0,-2,0,-3,2,1,-1,-2
1584990518.6882923,0,3,4,0,-1,-2,-1,0
1584990518.6895833,0,1,-5,1,-1,3,0,-1
1584990518.6895833,1,1,-1,-2,1,0,-1,0
1584990518.7025747,1,-1,-2,-2,-2,0,-3,-2
1584990518.7025747,2,-3,0,-2,1,-1,2,0
1584990518.7039409,-1,-1,2,1,-1,2,-1,-1
1584990518.7039409,0,-3,-1,0,-1,0,0,-2
1584990518.7250376,-2,-2,-4,-1,-1,1,2,0
1584990518.7250376,1,1,2,-2,1,0,-1,1
1584990518.7259185,1,-1,0,1,1,1,0,0
1584990518.7259185,-2,-1,1,0,1,3,1,-3
1584990518.7482376,-1,-3,-3,1,-1,2,-1,1
1584990518.7482376,1,-4,-1,-1,-1,-3,-1,2
1584990518.7496073,1,2,-3,-1,0,1,3,-1
1584990518.7496073,-1,-2,-2,0,0,-2,-1,-1
1584990518.7625961,-2,-3,-2,0,-1,1,1,-2
1584990518.7625961,-3,-3,-2,-2,2,-1,-2,-5
1584990518.7634544,-2,1,-1,0,1,1,-2,1
1584990518.7634544,-1,2,1,1,-2,-2,-3,0
1584990518.7851522,-1,-1,-2,0,0,-4,1,1
1584990518.7851522,3,-1,-3,1,3,0,1,-3
1584990518.7867568,2,-4,2,-4,-1,0,1,-1
1584990518.7867568,-3,-1,-1,-1,-3,-3,0,-2
1584990518.808277,-2,-3,-2,1,-2,0,-2,-2
1584990518.808277,-5,-2,0,1,-1,-3,0,3
1584990518.8099883,-1,0,-1,-2,-2,-1,-2,-1
1584990518.8099883,-1,1,0,0,0,-2,-1,0
1584990518.8226645,1,-1,1,-5,2,0,-1,-3
1584990518.8226645,-2,2,-1,2,1,1,1,0
1584990518.8239892,-1,2,-1,2,1,0,0,0
1584990518.8239892,1,0,-4,3,-1,0,0,-1
1584990518.8450382,0,-2,0,-2,-1,0,0,-1
1584990518.8450382,1,1,-1,-1,-1,-2,0,-1
1584990518.846311,-2,0,0,3,-3,1,-3,0
1584990518.846311,-3,0,0,1,-2,0,1,-2
1584990518.868845,1,-3,0,-1,-2,1,0,-1
1584990518.868845,0,-3,0,1,-4,-2,-1,0
1584990518.870163,-2,2,-3,-2,-2,1,-1,-3
1584990518.870163,0,1,-5,2,1,1,2,1
1584990518.8826067,-3,0,-2,2,-3,0,-2,-2
1584990518.8826067,-1,-3,0,-3,0,2,2,-1
1584990518.8834512,-1,0,1,0,0,-3,-1,-2
1584990518.8834512,3,-1,2,-1,1,-2,1,0
1584990518.9050756,1,-3,-2,1,1,-4,-2,1
1584990518.9050756,-2,-2,2,-1,1,-2,1,1
1584990518.9063644,1,0,-3,-1,-1,2,-1,-3
1584990518.9063644,1,-1,-1,-1,-4,-1,-3,0
1584990518.9282162,0,0,0,1,-1,3,1,1
1584990518.9282162,1,2,-1,-1,-2,-3,-3,0
1584990518.9295468,0,-2,0,0,-1,1,-1,0
1584990518.9295468,0,3,0,-1,-1,4,0,2
1584990518.9426072,-4,0,0,-3,3,-2,1,-2
1584990518.9426072,-1,4,-1,-1,-2,-3,-3,-1
1584990518.94397,-1,-2,-1,-1,0,0,0,-3
1584990518.94397,0,-2,-1,-3,-1,-3,-5,-2
1584990518.965141,1,2,-1,-3,-2,-3,0,-3
1584990518.965141,-4,2,-3,2,5,0,-3,-1
1584990518.9668698,-1,1,1,0,-1,0,0,-3
1584990518.9668698,1,2,0,2,-1,0,0,0
1584990518.9882636,-1,1,-2,1,-1,0,-3,-1
1584990518.9882636,2,-3,-1,0,-1,-1,0,0
1584990518.9895952,-2,0,0,-2,-4,2,0,0
1584990518.9895952,-2,1,2,0,-2,4,0,-1
1584990519.0030417,-1,0,-2,-3,0,0,2,-3
1584990519.0030417,0,-2,-1,-1,-1,2,0,0
1584990519.0038464,2,-1,0,0,3,0,-1,-1
1584990519.0038464,0,-4,-1,-1,-3,2,-2,-2
1584990519.0250828,2,-1,-2,1,0,1,1,0
1584990519.0250828,2,0,3,-1,2,1,-1,-1
1584990519.0259647,-1,2,0,-4,-1,-3,-1,0
1584990519.0259647,1,-1,1,0,-2,-1,1,2
1584990519.047573,0,-2,1,-1,0,0,3,-1
1584990519.047573,0,1,-3,0,1,-5,-3,-1
1584990519.0484016,0,-1,0,-3,-3,-1,-1,0
1584990519.0484016,-2,-2,0,2,-1,0,-3,2
1584990519.0626013,-3,-2,-4,-4,-3,2,3,3
1584990519.0626013,-1,0,0,-1,0,-3,-1,2
1584990519.064015,1,-1,-4,0,1,1,1,-2
1584990519.064015,0,0,-1,-1,1,-1,-2,1
1584990519.0850558,0,0,-1,-2,1,-1,-1,0
1584990519.0850558,1,1,0,-1,0,-2,-4,-2
1584990519.0863128,-1,2,1,2,0,-1,-2,-1
1584990519.0863128,1,-1,-5,-3,-1,1,-1,-3
1584990519.1073146,0,-2,1,0,1,-2,0,0
1584990519.1073146,3,-1,-1,-3,0,-2,-2,0
1584990519.132083,0,-1,0,2,-1,0,1,0
1584990519.132083,-5,-1,0,1,1,-2,0,1
1584990519.133516,0,-1,1,-3,0,2,-2,-2
1584990519.133516,-2,1,1,2,0,-1,1,3
1584990519.1342793,-3,0,-2,-1,2,-3,1,-2
1584990519.1342793,-1,2,2,2,0,-1,-1,-2
1584990519.1463397,-2,-1,0,0,-2,-1,-3,-2
1584990519.1463397,-1,-3,-4,0,-1,-2,-1,-3
1584990519.1471076,0,0,-2,0,-3,1,-1,-4
1584990519.1471076,0,-1,1,1,1,1,-1,-1
1584990519.167534,-2,0,-1,3,0,-1,-3,-1
1584990519.167534,2,0,-3,-1,3,1,0,1
1584990519.1690238,0,-1,0,2,1,-1,1,1
1584990519.1690238,0,1,-2,-3,3,2,-2,-2
1584990519.1907966,-1,-5,-2,-3,-1,0,1,0
1584990519.1907966,1,0,0,-1,1,0,-2,-1
1584990519.192034,1,-1,-2,0,-1,-1,0,1
1584990519.192034,0,0,-1,-1,-1,1,0,1
1584990519.205092,-1,-3,2,0,-2,-3,-1,1
1584990519.205092,1,-1,-3,2,2,1,0,0
1584990519.2062316,-1,1,-2,2,0,-3,2,-1
1584990519.2062316,2,-1,2,0,-1,0,-1,-1
1584990519.2276106,-3,0,0,-1,0,3,2,-1
1584990519.2276106,0,-2,-3,0,1,0,-1,-1
1584990519.2285695,0,-1,0,-5,0,1,0,0
1584990519.2285695,0,-1,-1,-1,0,-1,1,-3
1584990519.2510755,-3,0,-1,-1,0,-2,-4,-1
1584990519.2510755,-1,-1,-2,0,-1,-1,1,1
1584990519.2527578,0,2,-3,-1,0,1,0,1
1584990519.2527578,4,-2,-2,3,-3,-1,-3,-1
1584990519.2650924,0,-3,0,0,0,-2,-2,0
1584990519.2650924,2,1,-2,-2,0,1,3,-1
1584990519.2660294,0,-1,-1,-2,2,-1,-1,1
1584990519.2660294,-4,-2,-2,1,-1,-2,-2,2
1584990519.2875764,-2,-2,-1,0,-3,-2,0,-1
1584990519.2875764,1,1,1,0,-1,-2,-1,-1
1584990519.2893443,-3,2,0,-1,4,2,-2,-3
1584990519.2893443,0,1,-1,-1,2,0,-3,-4
1584990519.3107417,-5,-1,-2,0,-1,0,-1,-2
1584990519.3107417,-1,-1,-1,0,-2,0,-1,0
1584990519.3120337,-2,-2,1,2,-3,-3,1,-4
1584990519.3120337,0,1,-1,-2,-4,-2,-4,-2
1584990519.3250551,0,1,-1,-1,-1,-3,0,0
1584990519.3250551,-1,0,-2,-2,-3,0,1,-3
1584990519.3262312,-1,1,0,3,-2,-1,1,0
1584990519.3262312,-1,2,1,1,0,1,0,-1
1584990519.3475788,1,1,0,-2,2,1,1,0
1584990519.3475788,-1,-1,0,0,-1,-1,-3,-1
1584990519.348466,2,-1,-2,1,-1,-2,0,2
1584990519.348466,0,-5,1,2,0,-1,-1,-2
1584990519.3699307,2,-1,-1,-2,0,2,-1,0
1584990519.3699307,2,2,1,-7,-1,0,0,-1
1584990519.3776338,0,0,2,-1,-4,-1,0,1
1584990519.3776338,-3,0,-2,-1,0,-1,-2,-2
1584990519.385045,-2,0,0,-3,-2,-1,-1,0
1584990519.385045,0,-2,-2,-3,-2,-1,3,0
1584990519.386299,0,-1,0,-1,1,-1,-3,0
1584990519.386299,1,-1,-1,0,4,0,0,1
1584990519.4075596,-1,1,0,0,0,-3,-2,1
1584990519.4075596,-1,-1,1,0,1,-1,1,0
1584990519.4091904,0,1,-2,1,-3,2,-1,-1
1584990519.4091904,3,-2,1,-3,-3,-2,0,-1
1584990519.430727,1,1,-1,0,-1,1,1,0
1584990519.430727,-1,-2,-4,2,-2,0,0,-1
1584990519.431593,0,-2,-1,1,1,3,-2,-2
1584990519.431593,0,-1,-1,-1,0,-1,-2,1
1584990519.4450665,0,0,-2,-1,-2,0,2,-1
1584990519.4450665,-3,-3,-1,1,0,-3,2,0
1584990519.4463594,2,-1,-2,-2,1,0,0,-2
1584990519.4463594,1,-1,-3,1,-1,-1,-2,-1
1584990519.4675555,1,0,-5,-1,-1,2,0,-1
1584990519.4675555,0,-2,-1,1,-3,0,-2,-1
1584990519.4684465,-3,1,-3,-1,0,-2,-1,-1
1584990519.4684465,0,-1,-2,2,3,-1,1,1
1584990519.4907823,-2,1,-2,-2,2,-2,1,1
1584990519.4907823,3,-2,0,-2,0,1,-3,-3
1584990519.4921114,-1,-3,1,2,-1,-1,1,-2
1584990519.4921114,-2,-1,4,3,-1,-2,-1,0
1584990519.5050573,0,-1,-1,1,0,0,-2,2
1584990519.5050573,-3,-1,-2,-3,0,-1,-1,1
1584990519.5062573,2,-3,-1,2,-4,-3,2,2
1584990519.5062573,-2,0,0,2,-4,-1,-3,1
1584990519.5275335,-2,-3,2,0,-2,-2,1,-1
1584990519.5275335,-4,-1,2,0,1,1,1,-1
1584990519.5291464,-1,-1,4,0,-1,3,0,-2
1584990519.5291464,0,-1,1,0,0,-1,0,-1
1584990519.5508041,-1,-4,1,1,-4,1,-3,-2
1584990519.5508041,-1,1,0,-1,0,-2,0,3
1584990519.5521946,2,1,-1,0,-1,1,1,3
1584990519.5521946,-2,-1,-3,-4,0,-2,0,-2
1584990519.5650578,1,-2,-1,0,-1,-1,0,-2
1584990519.5650578,-1,-1,-3,-1,-2,-3,-3,0
1584990519.5659404,1,-1,1,-4,-1,-1,2,2
1584990519.5659404,0,0,-2,2,0,-1,-2,-1
1584990519.587509,-1,-3,2,-1,-2,-1,-1,1
1584990519.587509,-1,4,0,-3,-2,1,-3,-3
1584990519.5886617,0,-2,-1,1,-1,1,1,0
1584990519.5886617,0,0,-1,1,0,1,-4,-1
1584990519.6114004,0,0,0,0,1,3,-3,-2
1584990519.6114004,-1,2,1,1,2,0,-1,1
1584990519.6127312,0,0,1,-2,2,0,2,1
1584990519.6127312,-1,2,0,1,1,-1,0,-3
1584990519.625097,-1,-2,-1,0,-4,-1,0,-1
1584990519.625097,-3,-1,1,-3,0,-1,-4,0
1584990519.6259394,-2,-3,2,-1,-2,0,1,3
1584990519.6259394,-3,2,0,-4,-1,0,-1,-1
1584990519.6475668,2,1,-3,-1,-4,1,-2,1
1584990519.6475668,0,0,-1,0,2,1,-1,-1
1584990519.6484616,0,0,-1,2,0,-1,1,1
1584990519.6484616,0,-2,0,-2,0,-2,-1,0
1584990519.670814,1,-2,0,-3,-1,0,-1,0
1584990519.670814,1,0,-1,-1,1,-1,-2,-1
1584990519.6722245,0,-1,0,2,-1,-2,0,1
1584990519.6722245,-5,2,0,0,0,3,-2,1
1584990519.6851156,1,0,3,2,-4,1,0,0
1584990519.6851156,-1,1,-1,-1,-1,-1,0,-2
1584990519.6864522,-1,0,-1,0,-2,0,-2,-2
1584990519.6864522,-2,-1,0,0,1,0,0,-3
1584990519.7075732,-1,2,-1,-3,0,-3,-2,-4
1584990519.7075732,1,0,0,-2,0,-1,2,0
1584990519.7084615,-1,-1,-2,-2,0,0,2,-2
1584990519.7084615,3,-2,-2,-3,-1,2,0,0
1584990519.7314184,0,-3,-2,-1,3,1,-1,0
1584990519.7314184,-2,-2,-1,0,1,0,-1,1
1584990519.732321,0,0,-3,-2,3,1,-4,-2
1584990519.732321,-1,0,0,0,0,-2,0,-2
1584990519.7450805,-3,-3,-1,-2,-2,0,-1,0
1584990519.7450805,-2,0,1,-1,-3,-3,-1,-1
1584990519.7463768,1,1,1,-1,-1,-1,0,0
1584990519.7463768,-1,-1,-1,-2,0,2,2,1
1584990519.7675717,0,-2,-2,1,0,0,-1,1
1584990519.7675717,0,1,2,0,-1,0,-3,-5
1584990519.7684622,-1,2,2,1,1,-2,-1,-1
1584990519.7684622,1,-2,-1,0,1,-1,1,-1
1584990519.7907774,-4,-3,3,-2,1,0,1,0
1584990519.7907774,-1,0,1,-3,0,1,-2,1
1584990519.7920427,-1,-4,-3,0,2,0,-3,0
1584990519.7920427,2,1,0,-4,-2,0,-3,0
1584990519.8051496,-1,0,-3,1,-2,-1,-1,1
1584990519.8051496,-2,0,-3,-1,-1,-1,-1,0
1584990519.8069184,-2,1,0,-2,-1,-4,-1,-1
1584990519.8069184,-1,1,0,-3,-1,-1,-3,1
1584990519.827552,0,-4,-1,-2,-3,-1,1,-3
1584990519.827552,-1,2,-1,-1,1,2,1,0
1584990519.828444,1,-2,0,-1,-3,-3,0,0
1584990519.828444,-3,-1,-1,3,-1,-2,-2,-1
1584990519.8508384,-1,-3,0,-1,0,1,-1,2
1584990519.8508384,-4,-1,-1,-3,3,0,0,-4
1584990519.852253,-2,0,0,-4,1,0,1,0
1584990519.852253,-1,-1,-3,1,1,0,1,0
1584990519.86506,-2,-2,-1,0,-1,1,-1,0
1584990519.86506,0,2,0,0,0,-3,-3,0
1584990519.8659165,2,-1,-2,-1,-1,1,0,2
1584990519.8659165,-2,-2,-3,-2,-3,1,1,1
1584990519.8875792,0,0,-1,-1,-1,-1,2,-1
1584990519.8875792,0,-1,-1,-1,-3,-1,3,1
1584990519.8892987,0,2,0,-1,-4,0,-3,-3
1584990519.8892987,-1,1,1,0,-2,-1,2,-1
1584990519.9107568,1,1,-2,0,0,-1,0,-2
1584990519.9107568,-1,1,-1,-1,-1,-1,1,1
1584990519.9115748,-1,1,-3,-1,1,0,-1,-1
1584990519.9115748,0,0,2,0,0,2,-3,0
1584990519.92503,0,-1,0,-5,2,-2,-2,1
1584990519.92503,1,1,-1,-2,1,1,1,1
1584990519.9262536,-1,1,0,-4,-3,2,-2,0
1584990519.9262536,-1,2,-2,-1,-1,-1,0,-3
1584990519.9475603,-1,-1,0,0,0,0,0,-1
1584990519.9475603,0,2,-1,-1,-3,-1,-2,-3
1584990519.9485188,1,1,-1,0,-2,-2,1,3
1584990519.9485188,-1,-3,0,0,-2,1,-2,-1
1584990519.9786339,0,3,-3,0,-1,0,-1,-2
1584990519.9786339,1,0,-2,0,3,-1,1,0
1584990519.979844,0,-2,0,1,-1,0,0,-1
1584990519.979844,-3,-1,-1,-2,1,2,0,1
1584990519.9868615,-2,2,-2,-1,-2,1,-1,1
1584990519.9868615,4,-1,-1,2,1,0,1,0
1584990519.992535,1,-3,0,-2,1,-3,-1,-3
1584990519.992535,-2,-2,-1,2,-1,0,1,2
1584990520.007532,-1,1,-2,1,-3,-3,-1,2
1584990520.007532,0,2,-2,-4,-3,0,1,3
1584990520.008767,-1,1,-2,0,-2,0,0,-3
1584990520.008767,0,1,1,0,2,1,-3,-3
1584990520.0307558,-1,2,0,-1,3,-1,0,0
1584990520.0307558,-3,-1,-1,-2,0,1,-3,-2
1584990520.0316346,-3,1,2,-1,1,-1,0,-1
1584990520.0316346,-2,0,1,0,2,-2,-4,-1
1584990520.044402,-1,-3,1,2,-1,0,-1,0
1584990520.044402,1,-1,-2,1,-2,1,1,-1
1584990520.0525565,-2,0,2,1,-2,2,0,2
1584990520.0525565,2,2,0,1,1,-4,-2,-1
1584990520.0675263,1,0,0,-2,0,-3,2,1
1584990520.0675263,-2,0,-4,2,0,1,0,1
1584990520.068395,1,1,0,-1,0,0,-2,-1
1584990520.068395,-3,0,-2,0,-6,1,-1,1
1584990520.0907056,-2,-1,-1,-3,0,-1,-1,-1
1584990520.0907056,-1,0,1,-1,-1,0,1,-1
1584990520.092029,3,1,0,1,3,0,1,0
1584990520.092029,2,-4,-5,-1,3,1,-2,-3
1584990520.1131856,-3,-1,2,1,-1,0,2,-1
1584990520.1131856,1,0,2,-1,0,-1,-2,1
1584990520.1140327,-1,-1,-4,-1,-3,1,1,1
1584990520.1140327,-1,-2,-3,0,1,-3,-1,-2
1584990520.1275363,1,-1,1,-2,-1,1,1,-2
1584990520.1275363,-1,2,-1,-2,2,-2,0,-2
1584990520.1289003,-2,-1,1,-1,-3,-2,2,0
1584990520.1289003,-3,-1,-1,0,-2,-1,1,2
1584990520.1507869,-1,-2,1,-2,-3,1,0,0
1584990520.1507869,-1,2,-1,-1,-2,0,0,-1
1584990520.1521232,0,0,2,0,1,-2,-1,2
1584990520.1521232,2,-1,0,0,0,-1,-3,1
1584990520.1732028,-1,-2,-2,-2,-1,-1,-3,0
1584990520.1732028,-1,1,0,1,0,-1,1,0
1584990520.1744196,0,1,1,1,0,1,2,-1
1584990520.1744196,0,-3,2,-2,0,0,-2,0
1584990520.1875439,2,0,3,-1,-1,-2,-2,-1
1584990520.1875439,1,-5,-1,-2,-1,-2,-3,-3
1584990520.1891317,-3,-2,1,-1,1,1,0,0
1584990520.1891317,-1,-2,-2,-4,0,1,1,-3
1584990520.212075,1,-2,0,2,-3,-2,-2,-5
1584990520.212075,0,-2,1,1,0,-1,-1,1
1584990520.213237,-1,2,1,-2,1,-1,-1,0
1584990520.213237,-5,-4,2,-1,2,-1,0,-1
1584990520.2332158,0,-1,1,-3,-6,4,-1,0
1584990520.2332158,-2,-1,0,3,-2,0,0,1
1584990520.2340014,-4,1,-1,1,-2,2,0,-2
1584990520.2340014,-1,0,0,0,0,-1,1,2
1584990520.2559106,0,1,1,-3,0,2,1,-1
1584990520.2559106,1,-2,-2,-3,2,-3,-4,-3
1584990520.2567441,1,-2,2,0,-1,0,2,-1
1584990520.2567441,-1,-2,1,0,1,-1,-1,0
1584990520.270862,-1,-2,-1,0,-5,2,0,-2
1584990520.270862,0,-2,-3,0,-3,1,-1,-1
1584990520.2736616,1,2,0,1,-1,2,2,2
1584990520.2736616,-1,-3,-3,2,-3,-1,-1,0
1584990520.2931905,-3,-4,-2,-2,1,-1,-1,2
1584990520.2931905,-2,-1,0,-1,-2,2,1,3
1584990520.2939475,2,-1,0,-1,4,2,-3,1
1584990520.2939475,-1,-1,-2,-2,3,-2,0,-3
1584990520.3075893,-3,-5,-2,3,2,1,-2,-1
1584990520.3075893,0,0,0,0,-2,0,-3,-2
1584990520.308514,3,0,0,1,1,-2,-2,-2
1584990520.308514,2,0,3,2,-2,3,-3,-2
1584990520.3307455,1,-4,-1,1,-1,-1,1,0
1584990520.3307455,-5,1,-4,-2,-4,-1,-2,-3
1584990520.3315845,0,0,-1,-2,0,-1,2,2
1584990520.3315845,-1,0,-1,-1,2,-1,-4,-3
1584990520.3532715,0,-2,-1,1,2,0,-4,-1
1584990520.3532715,-2,-3,0,-4,0,-3,-2,1
1584990520.3545058,2,-1,0,0,0,2,-3,-1
1584990520.3545058,-1,-3,-1,-1,-4,0,-1,0
1584990520.3675473,-1,-3,-2,-3,1,-1,1,0
1584990520.3675473,-5,0,1,1,-1,0,0,-3
1584990520.3684607,2,0,-4,1,-1,1,0,0
1584990520.3684607,0,-1,-2,-2,-2,-1,-2,0
1584990520.3907516,-1,-4,-1,1,-2,-4,2,0
1584990520.3907516,1,2,-4,1,-3,-1,-6,-1
1584990520.391973,-2,-2,-4,2,0,-2,-1,-1
1584990520.391973,0,0,1,-5,1,-1,0,0
1584990520.4132442,-1,0,-1,-3,-2,2,-1,3
1584990520.4132442,-3,-1,0,2,1,-3,1,-1
1584990520.4141083,0,-3,-2,0,-3,-5,-2,-2
1584990520.4141083,-3,2,-1,2,-5,2,-3,0
1584990520.4275093,-2,0,2,-1,0,0,-3,-1
1584990520.4275093,0,-3,-2,-2,1,4,-2,2
1584990520.4283214,0,-1,1,-2,-2,2,-1,-2
1584990520.4283214,0,0,0,0,-3,1,-2,2
1584990520.4498696,1,-3,-1,-2,-3,-1,-1,2
1584990520.4498696,-3,2,-1,-2,-1,-2,0,-1
1584990520.457523,-4,-1,-2,0,2,1,-1,-1
1584990520.457523,-1,1,-1,1,0,-1,-2,1
1584990520.4732068,-3,-2,2,2,-2,-1,-2,2
1584990520.4732068,0,-1,0,-2,1,-2,0,-2
1584990520.4744508,2,-4,0,1,-2,1,0,-1
1584990520.4744508,-1,-1,-3,-3,-1,-2,0,2
1584990520.4875515,-1,0,1,0,0,0,0,-5
1584990520.4875515,1,1,-1,0,1,-1,-1,0
1584990520.4892707,-1,1,0,1,-4,0,1,-1
1584990520.4892707,2,2,0,-3,0,0,-3,0
1584990520.5107002,-2,0,0,-2,0,0,0,1
1584990520.5107002,-3,1,0,-3,3,-1,1,-2
1584990520.5119638,-1,-2,0,-1,-1,-2,-2,-1
1584990520.5119638,1,-1,-1,0,-1,0,-1,1
1584990520.5337367,1,-1,1,1,1,-3,0,-1
1584990520.5337367,1,0,-4,2,1,-3,0,1
1584990520.5346034,-1,-1,1,-2,-1,1,1,1
1584990520.5346034,3,-2,1,-1,1,1,-2,0
1584990520.5475528,1,0,-1,-3,-3,-2,-1,0
1584990520.5475528,0,2,4,-5,-3,2,-1,-2
1584990520.5483658,-1,-1,-1,-2,-1,-3,0,0
1584990520.5483658,-2,-1,0,-1,-2,0,-2,-2
1584990520.569892,-1,-1,1,-1,1,0,0,0
1584990520.569892,-1,1,2,-2,-1,-3,0,-1
1584990520.5775778,0,-3,-1,-3,0,2,1,1
1584990520.5775778,1,-4,1,-1,1,-2,-1,-2
1584990520.5931625,-1,-4,-1,-4,0,1,-1,-1
1584990520.5931625,1,0,-1,-1,1,-3,3,-2
1584990520.593872,-2,0,-1,0,0,-2,-3,-1
1584990520.593872,2,0,-1,-1,1,0,-1,0
1584990520.6075575,1,-2,2,-1,-1,-1,2,1
1584990520.6075575,2,-2,-3,-2,-3,0,-3,2
1584990520.6083856,-1,-2,1,3,-1,-1,0,2
1584990520.6083856,1,-1,1,0,-1,1,1,0
1584990520.6307368,2,0,1,0,-2,-1,-4,0
1584990520.6307368,-2,-1,-3,0,1,-2,1,2
1584990520.6316013,0,-1,-1,2,0,-2,-3,-1
1584990520.6316013,-1,-3,0,-2,-1,-1,2,-2
1584990520.653235,2,-2,3,-3,-3,0,-2,-1
1584990520.653235,0,-1,-1,1,1,0,-2,-3
1584990520.6545112,-4,-3,1,1,-3,2,1,0
1584990520.6545112,2,2,3,-1,-1,-2,-1,0
1584990520.667517,0,1,-2,-1,2,1,-3,-4
1584990520.667517,-1,-1,1,0,0,-2,-2,0
1584990520.6683855,1,3,2,-2,0,0,0,-3
1584990520.6683855,1,-3,-3,0,2,0,-1,-2
1584990520.690717,0,-3,-1,-1,-2,0,-3,1
1584990520.690717,0,-3,0,1,-2,0,-2,0
1584990520.6920328,-1,3,1,1,2,-1,2,-1
1584990520.6920328,-2,-1,-2,-2,1,-3,0,0
1584990520.7131867,0,0,0,0,-4,0,-2,1
1584990520.7131867,-1,2,0,1,0,-1,-1,2
1584990520.714077,0,-1,-1,-1,-1,-2,2,-2
1584990520.714077,0,-1,2,3,-2,4,-1,-3
1584990520.7274477,-4,-1,-2,-1,0,1,-1,0
1584990520.7274477,-3,1,-3,-1,0,-1,0,0
1584990520.7282686,3,0,-1,1,3,-2,0,-1
1584990520.7282686,-1,0,-1,0,0,-3,4,1
1584990520.750672,0,0,0,1,1,-1,0,0
1584990520.750672,-3,1,1,0,0,-3,0,0
1584990520.7520118,2,-1,2,-2,0,0,1,1
1584990520.7520118,0,-3,-1,1,-4,0,1,1
1584990520.7807257,1,-1,1,3,-2,0,2,1
1584990520.7807257,0,3,-3,2,-4,0,-1,-2
1584990520.781652,-1,-1,-1,-3,-3,-2,-1,0
1584990520.781652,-2,0,-2,0,0,-1,1,0
1584990520.7878566,2,0,-3,0,2,-2,1,1
1584990520.7878566,-2,0,-3,-1,-1,2,-1,-1
1584990520.7881973,-4,0,-2,1,2,-1,-2,-1
1584990520.7881973,-3,0,-1,-1,2,2,0,-3
1584990520.810684,-2,-2,-1,1,-2,5,-1,0
1584990520.810684,-1,-2,-6,3,0,-2,-4,-1
1584990520.8115518,0,-2,2,-1,-2,-1,3,0
1584990520.8115518,-3,-1,-1,-4,-2,1,-2,0
1584990520.8332036,0,-2,0,1,-4,-1,0,0
1584990520.8332036,0,3,-4,0,-2,-1,3,0
1584990520.834071,1,1,2,-1,-3,-2,1,0
1584990520.834071,2,-3,0,-3,0,-1,-3,1
1584990520.84755,2,-1,0,-2,-1,3,-1,-1
1584990520.84755,0,0,0,-2,0,0,-1,-1
1584990520.848381,1,0,-1,1,0,0,-1,0
1584990520.848381,-1,-1,1,0,-1,-1,-1,-1
1584990520.870764,-1,1,1,-1,2,-1,-3,-2
1584990520.870764,-1,-1,3,3,-1,-3,-1,2
1584990520.872121,1,1,1,1,1,-1,1,-2
1584990520.872121,-3,1,-2,-2,2,-1,1,0
1584990520.893209,0,-1,-3,-3,-2,-2,-1,-1
1584990520.893209,-3,0,-3,-2,-2,-3,0,0
1584990520.8944767,-1,-3,2,-1,0,-2,0,-3
1584990520.8944767,-1,-4,-1,0,-4,1,-2,0
1584990520.9157975,1,-1,-2,-1,-4,1,-1,3
1584990520.9157975,0,3,-1,-1,2,-4,0,0
1584990520.9171293,2,1,2,0,-2,1,-2,-1
1584990520.9171293,-4,-1,0,-4,1,1,1,0
1584990520.9306872,-1,-2,-2,-1,-1,-4,-1,-3
1584990520.9306872,0,-4,0,-1,-3,-1,-1,0
1584990520.9315495,-1,-2,0,-1,4,2,3,-1
1584990520.9315495,-1,-1,5,2,2,2,-1,0
1584990520.9531827,-2,-3,0,-1,1,-2,-1,-4
1584990520.9531827,1,0,-2,-2,-4,-1,-1,1
1584990520.9543831,0,0,-1,-1,0,1,-2,1
1584990520.9543831,0,-2,-1,0,-5,-3,0,0
1584990520.9668472,0,1,-2,-2,0,0,0,1
1584990520.9668472,1,-1,-1,1,-1,-3,1,2
1584990520.9750552,-1,-2,0,-2,2,0,3,0
1584990520.9750552,-4,0,1,-2,-1,-1,-2,0
1584990520.9906828,-1,-3,2,0,1,3,1,1
1584990520.9906828,-1,0,-2,-1,0,-2,-2,-1
1584990520.9919252,-1,-2,2,1,-2,-2,-4,0
1584990520.9919252,-2,1,1,1,-5,-1,0,-1
1584990521.01319,0,1,2,-1,0,-1,-3,-1
1584990521.01319,-1,-2,-3,-1,-4,-3,-2,-2
1584990521.014076,1,-2,0,-3,-2,0,1,-1
1584990521.014076,-1,-4,-4,1,-4,0,-1,-1
1584990521.02682,0,0,0,0,-2,-1,-2,-3
1584990521.02682,1,0,-1,0,0,-1,0,2
1584990521.035109,-3,-1,-1,-1,1,1,-2,-4
1584990521.035109,-3,-2,-3,2,-2,1,7,-6
1584990521.0514848,2,-1,-4,-1,2,-2,-2,3
1584990521.0514848,1,0,0,0,0,1,-2,-1
1584990521.0528493,1,-3,1,-2,3,0,-1,-2
1584990521.0528493,-3,-2,0,-2,0,-4,-3,1
1584990521.0731852,2,-1,-2,0,-4,-5,-1,3
1584990521.0731852,-2,0,-3,0,-3,-1,0,-1
1584990521.074418,-1,0,0,2,-3,1,2,-3
1584990521.074418,-1,-3,-1,-1,2,-3,1,1
1584990521.0957925,-1,-3,1,2,1,-1,2,2
1584990521.0957925,-1,1,-3,-2,0,-2,1,0
1584990521.0966823,-1,0,1,-2,2,-1,-3,-3
1584990521.0966823,-3,-1,3,-1,2,1,0,0
1584990521.11068,0,-2,1,1,0,-3,0,1
1584990521.11068,0,0,-2,-1,-1,-2,-2,-1
1584990521.1115663,-2,0,0,1,0,2,1,1
1584990521.1115663,1,-2,-2,1,-1,1,2,-3
1584990521.13316,-2,0,0,-3,-2,-1,-4,-2
1584990521.13316,-1,0,2,0,3,-3,-4,0
1584990521.1339972,0,-1,-2,-1,-3,0,-1,0
1584990521.1339972,-4,-1,-2,-1,1,1,4,-1
1584990521.156416,0,-2,-3,-1,-3,-3,0,-1
1584990521.156416,1,1,-1,1,-2,-2,0,-1
1584990521.1576555,1,-1,1,3,0,-3,-3,0
1584990521.1576555,0,-3,-2,2,1,-1,1,0
1584990521.170743,1,-1,0,-2,-1,2,2,1
1584990521.170743,-2,0,1,-1,-1,-1,2,-1
1584990521.171791,-1,-2,1,2,0,-3,0,-1
1584990521.171791,0,-1,-2,-2,-4,0,-2,1
1584990521.193215,1,-1,1,0,-1,-1,-3,-2
1584990521.193215,-1,-1,0,0,-1,0,1,0
1584990521.1943703,2,-2,-4,0,0,-2,0,0
1584990521.1943703,-2,-2,-1,1,-2,-5,-2,-2
1584990521.2159083,-2,1,0,-3,-1,0,1,-3
1584990521.2159083,-1,-1,0,1,-3,0,0,-1
1584990521.217432,2,-2,-1,1,-1,1,0,-1
1584990521.217432,-3,-2,-1,0,-1,2,0,1
1584990521.2307453,2,-3,2,-1,2,3,1,-1
1584990521.2307453,-2,-2,-1,0,2,-1,2,-1
1584990521.2316468,-1,-1,-3,2,-1,-5,-3,1
1584990521.2316468,0,1,0,-1,-2,0,-3,-1
1584990521.2532377,2,-1,0,1,0,2,-5,-1
1584990521.2532377,-1,1,1,-2,0,2,3,0
1584990521.254535,0,-1,1,3,0,-2,1,-2
1584990521.254535,1,-3,1,0,0,1,-2,-3
1584990521.2920282,-6,-4,1,0,0,0,1,1
1584990521.2920282,-2,1,-2,-1,2,-3,-2,0
1584990521.2933278,-4,-3,0,-3,-2,0,-2,0
1584990521.2933278,2,0,1,2,1,-1,-1,-1
1584990521.2941308,-2,0,1,0,0,1,1,0
1584990521.2941308,-1,0,-3,-3,3,-2,0,0
1584990521.2988944,0,0,0,0,-1,1,0,1
1584990521.2988944,0,1,0,-4,-1,-3,-1,-2
1584990521.3131878,0,-2,0,-2,2,0,0,-1
1584990521.3131878,-2,1,-3,0,1,-1,1,1
1584990521.3141174,-1,-1,0,-2,1,2,-1,-1
1584990521.3141174,2,0,-4,0,1,-2,1,3
1584990521.3357918,0,2,-2,-2,-4,0,-2,2
1584990521.3357918,-3,1,-1,-3,0,-1,0,-2
1584990521.3370848,-1,1,1,0,-3,-1,-3,1
1584990521.3370848,1,2,0,2,1,-2,-2,-4
1584990521.3507757,1,-2,-2,-1,0,1,0,0
1584990521.3507757,-3,3,-1,-1,0,0,-1,-1
1584990521.3520858,0,-3,-1,-2,0,0,-3,1
1584990521.3520858,-1,-1,0,-1,-1,0,1,0
1584990521.3731687,2,0,-1,2,0,-1,-3,0
1584990521.3731687,-3,-2,0,2,-3,-1,-1,-4
1584990521.3739994,0,-3,1,0,-4,2,-3,0
1584990521.3739994,-3,-2,-1,0,0,-3,2,1
1584990521.3964057,-3,-4,-2,0,2,3,0,2
1584990521.3964057,0,0,0,2,-1,0,-2,-1
1584990521.3972874,0,-5,-1,1,-2,-2,-2,-2
1584990521.3972874,0,-2,0,-3,-2,-4,-2,0
1584990521.4111164,-1,1,-1,0,-2,-3,-3,3
1584990521.4111164,1,-2,1,0,1,3,-2,-1
1584990521.4123642,3,-5,-2,-1,1,-1,-1,1
1584990521.4123642,-1,-2,0,-2,-2,3,2,-2
1584990521.4331896,0,2,-3,0,-4,-1,-2,1
1584990521.4331896,-1,0,1,0,-1,0,-3,-1
1584990521.4340386,1,0,-4,-2,-1,0,-3,-2
1584990521.4340386,-2,-3,-1,0,2,0,-2,-3
1584990521.4557893,0,3,0,-2,-1,-3,-3,2
1584990521.4557893,0,0,1,1,-1,2,-1,1
1584990521.4570494,1,-1,2,-1,0,-1,1,-1
1584990521.4570494,2,-4,-1,-3,-2,0,1,-1
1584990521.470774,1,0,-1,0,-5,-3,-4,-1
1584990521.470774,2,-1,1,1,-2,0,3,-1
1584990521.4721043,-1,-1,-2,0,0,-1,1,0
1584990521.4721043,2,-1,0,-3,0,0,-2,1
1584990521.4931805,-1,1,0,-1,-1,2,-1,-3
1584990521.4931805,0,0,2,0,-2,1,0,-4
1584990521.494053,-2,2,0,-1,-3,-3,0,-2
1584990521.494053,2,0,1,-3,-1,-2,-2,0
1584990521.5158248,2,1,0,0,1,0,0,0
1584990521.5158248,1,-4,-2,1,-2,-4,1,1
1584990521.5172908,2,-4,-1,-3,1,0,-2,0
1584990521.5172908,-1,-3,0,-1,-2,-1,-1,-1
1584990521.530416,-3,1,0,0,1,0,-2,0
1584990521.530416,1,-2,-1,3,2,-6,-1,1
1584990521.5375197,-5,0,-1,-1,4,-1,0,-2
1584990521.5375197,2,-4,0,-1,-2,-1,-2,-1
1584990521.553175,0,0,-3,-3,-3,-3,1,0
1584990521.553175,-1,3,-1,-3,1,-3,0,0
1584990521.5543764,-2,0,0,-2,-4,1,-3,2
1584990521.5543764,-2,-1,-2,0,-3,-2,-2,-8
1584990521.575787,-4,-2,-1,-1,-3,1,-1,6
1584990521.575787,0,0,1,-3,0,-1,4,-3
1584990521.5770931,4,0,-1,2,2,1,-3,-1
1584990521.5770931,1,-1,-1,2,-1,2,1,2
1584990521.5899503,0,2,-2,2,3,-1,2,-3
1584990521.5899503,-1,-3,1,1,1,1,-2,3
1584990521.5909946,0,0,0,2,2,0,0,-2
1584990521.5909946,1,-1,1,-2,-4,1,-1,0
1584990521.6131728,0,-1,-3,-4,-4,1,-2,0
1584990521.6131728,-1,1,-1,-2,0,0,0,-1
1584990521.6140678,-3,-2,2,1,5,3,0,-1
1584990521.6140678,-1,-1,-1,-1,-1,0,-4,0
1584990521.642361,1,-1,3,1,1,-1,0,1
1584990521.642361,2,1,1,-1,2,2,0,0
1584990521.6497486,1,-1,-2,1,-3,-3,0,0
1584990521.6497486,-4,-4,-3,-2,-1,0,-1,1
1584990521.6595538,2,3,1,0,2,-2,-3,-5
1584990521.6595538,1,1,-1,-1,2,-1,-1,0
1584990521.6606889,0,-4,0,0,-3,0,-1,-2
1584990521.6606889,-2,-4,2,0,-4,-3,-2,-1
1584990521.6731877,-1,1,0,0,1,2,-1,-1
1584990521.6731877,1,-1,2,0,-2,-2,0,-3
1584990521.6743796,1,-3,1,-1,1,1,2,0
1584990521.6743796,0,1,0,-1,-1,-4,2,-2
1584990521.6958,-4,1,-2,-3,-1,-4,0,-2
1584990521.6958,-2,2,1,-3,-1,1,3,0
1584990521.6966777,-1,-1,-1,-1,-2,1,1,1
1584990521.6966777,-1,1,0,1,1,2,-1,-2
1584990521.710033,-1,1,3,0,0,0,-2,0
1584990521.710033,-1,-1,-1,0,1,1,-3,2
1584990521.7114003,-2,-1,-1,-4,-1,-2,4,1
1584990521.7114003,-1,-1,-1,0,0,-2,0,-1
1584990521.733176,-1,-1,-4,-1,-1,-2,2,2
1584990521.733176,0,2,-1,-1,-1,0,0,-3
1584990521.7340574,-1,0,-2,1,0,-1,1,1
1584990521.7340574,1,-4,-1,-1,0,1,-2,-2
1584990521.7558062,1,1,-3,0,-1,2,2,-1
1584990521.7558062,0,1,-1,0,-3,0,1,4
1584990521.7571762,1,-2,0,-4,2,-2,1,-1
1584990521.7571762,1,-3,-3,-2,-3,-2,-2,0
1584990521.76944,4,0,0,2,0,-3,3,1
1584990521.76944,-1,1,0,-2,0,-1,-2,-1
1584990521.7782063,-1,-1,-2,0,1,1,-3,-1
1584990521.7782063,-3,-1,-2,-2,-3,0,-2,0
1584990521.7932038,-2,2,-1,-2,0,2,1,1
1584990521.7932038,-3,0,-2,-2,-2,1,-3,1
1584990521.7944243,1,1,-1,-2,2,0,-4,-1
1584990521.7944243,-2,0,1,-2,0,3,-2,0
1584990521.8158324,0,-2,1,1,2,0,1,0
1584990521.8158324,-1,0,-3,-2,-3,0,-2,0
1584990521.8177035,1,2,1,-1,-3,0,0,-1
1584990521.8177035,0,0,1,1,-2,-3,-2,-1
1584990521.8292923,0,5,-2,1,-1,-1,-1,0
1584990521.8292923,-2,0,0,1,1,0,0,-4
1584990521.8382378,0,-3,1,0,1,1,-1,-3
1584990521.8382378,1,1,0,-5,0,3,1,-1
1584990521.853165,-3,-1,-2,1,2,0,1,0
1584990521.853165,-1,1,-2,1,-2,2,-1,0
1584990521.8545797,0,-1,1,0,2,-2,-1,-2
1584990521.8545797,0,1,-2,0,-1,-3,-1,1
1584990521.8758035,1,-4,-1,-3,-2,-1,-2,-1
1584990521.8758035,-1,-2,-2,0,-3,5,-1,0
1584990521.8774364,0,-2,0,-1,-3,-1,2,-2
1584990521.8774364,-1,0,-3,-1,-1,0,2,-1
1584990521.8894129,0,-2,-1,-3,-1,1,-3,-1
1584990521.8894129,1,1,1,-1,0,2,0,0
1584990521.898229,-1,-1,0,-1,2,-3,2,1
1584990521.898229,-1,-1,0,2,-1,-1,-1,3
1584990521.9206736,1,1,-2,0,0,-1,0,-2
1584990521.9206736,-1,-1,0,-1,1,0,-1,1
1584990521.9221542,2,1,-3,1,0,-1,1,0
1584990521.9221542,-1,-1,0,-1,-4,-1,-1,-2
1584990521.9357517,-3,0,-1,-1,-3,-1,1,-1
1584990521.9357517,-1,0,-4,4,-4,-3,1,1
1584990521.937455,-1,-2,2,0,-1,-2,-4,1
1584990521.937455,0,-3,1,0,2,0,-2,3
1584990521.9495142,-1,0,1,-1,-1,2,-1,2
1584990521.9495142,-5,1,-1,1,-2,-1,2,0
1584990521.9582274,3,-1,-3,-2,-5,-1,1,1
1584990521.9582274,-1,-1,0,-2,2,-3,1,-3
1584990521.9731712,-2,0,-4,-2,-1,-4,0,-1
1584990521.9731712,0,0,0,-2,0,2,-1,-1
1584990521.9747167,-2,0,0,0,-1,2,-2,-1
1584990521.9747167,1,0,-2,2,0,-1,-1,-2
1584990521.9957683,-3,1,2,0,-2,1,0,-2
1584990521.9957683,1,-1,-1,-2,-2,-3,0,1
1584990521.997092,-1,-1,1,-3,-3,-1,0,0
1584990521.997092,0,1,-2,0,-1,0,2,-2
1584990522.0094213,1,3,1,-2,-1,0,-2,-2
1584990522.0094213,-1,2,-2,0,-3,6,-1,1
1584990522.0182264,-1,-1,0,0,1,-4,0,-1
1584990522.0182264,1,-3,1,1,-2,0,1,0
1584990522.033167,1,-2,0,0,-4,-5,-1,0
1584990522.033167,-3,-4,-2,3,-1,-1,-3,-1
1584990522.0345516,-4,-1,2,1,2,0,-2,-1
1584990522.0345516,-1,-1,-1,0,1,-2,1,0
1584990522.055804,2,2,0,1,-6,0,-1,1
1584990522.055804,1,2,-2,0,0,3,-1,-2
1584990522.0576656,-2,0,1,0,0,1,-1,0
1584990522.0576656,-2,-1,-1,-1,4,-1,-2,-1
1584990522.0693986,1,0,1,-1,0,-1,-2,-1
1584990522.0693986,-1,1,-2,0,0,1,1,0
1584990522.078154,-2,-2,-1,1,-1,2,-1,0
1584990522.078154,-2,-2,0,-1,-2,0,1,1
1584990522.0931559,0,-3,0,-1,0,-2,-2,-1
1584990522.0931559,-2,-4,1,1,1,0,1,0
1584990522.0947454,-2,1,-1,-2,-2,-2,-1,0
1584990522.0947454,-4,-1,0,2,-2,-4,0,-4
1584990522.115813,-1,-2,0,-1,-2,-2,2,-1
1584990522.115813,-1,-3,-1,-1,-2,-1,1,-3
1584990522.1175482,-1,-2,-2,-3,0,0,-3,-1
1584990522.1175482,2,-2,-1,0,1,0,-2,3
1584990522.1294303,2,1,-2,0,-4,-1,0,-3
1584990522.1294303,-1,-1,0,0,1,1,1,-3
1584990522.1381626,0,-1,-2,-1,-2,-1,-3,-2
1584990522.1381626,-1,0,1,1,-4,-2,1,1
1584990522.1531527,-1,2,-2,1,-2,-2,-4,-1
1584990522.1531527,-2,2,-2,2,0,-2,-1,-1
1584990522.1549177,-1,-3,0,-2,2,3,1,0
1584990522.1549177,-1,-2,-2,-1,1,-3,-2,1
1584990522.1757932,1,1,0,0,-2,3,0,2
1584990522.1757932,-1,0,-2,-2,0,0,1,1
1584990522.1774206,0,-1,1,-2,0,1,0,0
1584990522.1774206,-1,-3,4,-2,3,-1,3,-2
1584990522.198656,1,0,0,4,4,0,0,-4
1584990522.198656,1,-1,-2,-2,-3,0,0,0
1584990522.2001004,-4,-2,-4,0,2,-2,-2,-2
1584990522.2001004,0,-1,0,0,-1,-4,-1,-1
1584990522.2131443,-4,-2,-2,-4,-3,0,1,2
1584990522.2131443,-4,0,1,-1,-2,-1,0,0
1584990522.2145863,-2,-4,-2,-3,-3,2,-1,-1
1584990522.2145863,0,0,2,1,0,1,-1,-4
1584990522.235782,2,2,-1,-2,0,-2,-1,2
1584990522.235782,1,-1,-1,-1,0,-2,2,-4
1584990522.2374983,-1,-3,-2,-3,-1,-1,-1,0
1584990522.2374983,-3,-2,-2,-2,0,-1,0,-2
1584990522.258588,-1,2,-1,-2,-3,-2,-2,1
1584990522.258588,0,-2,-1,0,-4,-1,1,-2
1584990522.26446,-1,-2,0,-1,-2,-3,-1,-1
1584990522.26446,2,2,-4,0,1,1,-5,-2
1584990522.2731392,0,2,2,-1,2,-2,5,-1
1584990522.2731392,0,-1,-1,-1,-1,-2,1,-1
1584990522.2746894,0,-1,0,-2,0,-1,-2,-3
1584990522.2746894,1,-4,-2,1,0,0,2,1
1584990522.2957878,-2,0,0,0,-1,1,-3,-4
1584990522.2957878,1,0,-2,-1,-1,-2,4,-3
1584990522.2971015,-1,-2,-2,0,1,0,-4,-3
1584990522.2971015,2,1,0,2,1,-4,-4,1
1584990522.3182404,-2,-4,-1,-2,0,-4,-26,-8
1584990522.3182404,-1,0,-2,-1,1,2,5,-3
1584990522.3203454,-1,-2,2,-2,-1,-3,3,2
1584990522.3203454,2,0,-1,-4,-2,0,3,2
1584990522.3331285,0,4,-2,0,-1,2,1,0
1584990522.3331285,1,0,0,-2,-3,-5,0,-2
1584990522.3345692,0,-2,2,0,-1,-2,-4,2
1584990522.3345692,1,0,1,2,1,1,-3,-2
1584990522.363268,2,1,0,4,-1,1,-1,1
1584990522.363268,2,0,0,0,-1,0,1,1
1584990522.3651423,-1,-2,-1,-2,2,0,-1,1
1584990522.3651423,-2,-1,-1,-3,1,-1,-2,0
1584990522.3781157,-1,0,0,2,-3,-4,2,1
1584990522.3781157,-5,-1,-3,-1,0,-1,0,1
1584990522.3797078,-2,-2,-3,-2,-1,-1,-3,-1
1584990522.3797078,0,1,-4,3,-6,-1,-3,-1
1584990522.3931677,-1,0,-2,3,-1,3,1,1
1584990522.3931677,-1,-2,0,0,-1,0,-3,1
1584990522.394781,-1,-2,-1,-1,3,-2,-2,1
1584990522.394781,-2,1,1,-3,3,-1,1,-1
1584990522.415806,0,0,-1,-1,2,1,-1,-1
1584990522.415806,0,0,-2,-1,-1,0,1,-1
1584990522.4174223,-2,-4,-2,-1,-1,0,-5,-2
1584990522.4174223,-2,-3,1,-2,2,-1,-2,0
1584990522.4382648,1,-2,1,0,0,0,0,0
1584990522.4382648,-4,-1,0,-2,-1,-2,0,-1
1584990522.440484,1,-1,-2,0,-5,-3,1,0
1584990522.440484,-1,-2,0,1,-1,1,-1,1
1584990522.4518986,-1,1,1,-3,-6,2,-2,2
1584990522.4518986,-3,-1,-3,-2,-3,-1,-1,-3
1584990522.460653,0,-1,0,1,-1,-1,1,-1
1584990522.460653,1,-1,0,-3,2,-2,-2,-4
1584990522.491141,3,-2,-2,0,2,-3,-2,0
1584990522.491141,1,-1,-1,-3,-2,-1,-3,0
1584990522.4927979,-1,-3,2,1,3,0,1,0
1584990522.4927979,2,4,2,0,1,-1,-2,-1
1584990522.4983556,1,2,0,0,-2,1,2,-2
1584990522.4983556,-4,-1,-3,2,-1,1,0,-1
1584990522.5000741,-2,1,-1,0,-3,-1,-1,-1
1584990522.5000741,0,-2,0,1,-2,1,-4,-2
1584990522.511791,0,-1,1,2,-1,-1,-1,-1
1584990522.511791,-3,-2,-1,-2,-3,-2,0,-1
1584990522.5206773,0,2,2,-3,-2,-1,-1,1
1584990522.5206773,0,1,-2,-1,-2,-3,0,1
1584990522.5357823,-4,-2,-1,-4,-1,-2,-2,-1
1584990522.5357823,-2,1,-2,0,-1,-2,-2,-2
1584990522.5373566,-1,0,-2,-2,1,0,-1,0
1584990522.5373566,-4,-2,-2,-3,1,0,0,-2
1584990522.558118,0,2,0,-3,6,-3,1,2
1584990522.558118,-1,1,0,2,-4,-1,0,3
1584990522.5597644,0,0,-3,1,0,-2,-1,-1
1584990522.5597644,-1,1,1,2,-1,-2,-1,1
1584990522.5717647,1,-1,-1,0,-1,0,0,0
1584990522.5717647,1,0,-3,0,1,-1,-1,0
1584990522.5806868,-2,-1,2,1,1,0,1,-1
1584990522.5806868,0,-1,-2,3,-2,-2,-2,-2
1584990522.5956812,-1,-1,1,-3,-2,-1,-1,0
1584990522.5956812,2,0,-1,0,1,-1,-5,-3
1584990522.5969665,-1,0,2,-1,1,-2,3,0
1584990522.5969665,-1,-2,-1,-2,-2,1,2,-1
1584990522.6181993,1,2,0,1,-3,0,2,0
1584990522.6181993,-4,0,-2,-1,-1,-3,-5,-2
1584990522.6202264,0,0,-1,1,0,-2,3,-1
1584990522.6202264,-2,0,-1,-3,1,0,-2,0
1584990522.6317852,1,2,0,-2,-3,-1,0,-3
1584990522.6317852,-2,0,2,0,-2,0,2,0
1584990522.6406562,1,0,-1,0,1,1,-2,1
1584990522.6406562,0,-3,1,-2,1,-2,-4,0
1584990522.6557248,2,-2,-4,-1,-2,0,0,-2
1584990522.6557248,-1,-1,1,1,-3,0,-3,-1
1584990522.6573186,0,-1,-1,-2,0,-1,-3,-1
1584990522.6573186,-1,1,0,-2,0,-1,-2,-2
1584990522.6781428,0,2,0,1,-1,-2,0,1
1584990522.6781428,0,1,0,-1,0,0,2,-2
1584990522.679807,1,-1,-2,-1,-1,-3,-2,-4
1584990522.679807,1,0,-1,-1,-1,-2,0,1
1584990522.6917918,2,-2,-2,1,-1,1,-1,2
1584990522.6917918,-1,-1,-3,-4,-5,1,0,-2
1584990522.700627,0,-1,3,-1,-4,-1,-3,0
1584990522.700627,-1,-1,1,-2,1,1,-1,2
1584990522.716381,1,2,-2,-1,0,-3,-1,2
1584990522.716381,2,0,-2,-1,1,-3,-1,0
1584990522.7181897,0,-4,-1,1,-3,1,-1,0
1584990522.7181897,-5,-2,-1,-1,-1,-1,3,-2
1584990522.7382069,-3,-3,-1,0,1,-1,-2,-2
1584990522.7382069,0,-2,1,0,1,0,1,0
1584990522.7404852,1,2,0,0,1,-1,0,0
1584990522.7404852,-2,1,0,2,0,-1,-1,0
1584990522.7524326,0,-1,-1,-1,0,-1,-1,-3
1584990522.7524326,1,0,-3,-2,-3,-1,1,1
1584990522.7605877,-2,-1,0,-1,0,-2,-2,2
1584990522.7605877,1,1,1,0,-4,1,-1,0
1584990522.775718,-2,-2,-3,1,2,-1,-1,3
1584990522.775718,-2,1,1,1,0,1,0,-3
1584990522.7773232,-1,-2,0,0,1,-1,-4,1
1584990522.7773232,2,0,-2,-1,-2,1,0,0
1584990522.7981458,-1,1,-2,0,-4,0,0,0
1584990522.7981458,0,0,-4,-3,-1,-3,-1,-1
1584990522.7995512,-3,0,0,-2,-4,-1,1,-3
1584990522.7995512,-1,-2,1,-1,-1,-3,-1,1
1584990522.811836,2,-3,-1,-1,2,0,-1,3
1584990522.811836,-2,1,-2,0,-1,-2,0,1
1584990522.8206477,-3,-4,2,2,1,0,-3,-2
1584990522.8206477,1,-1,0,0,2,-2,0,-1
1584990522.8358061,1,0,-2,2,2,1,1,0
1584990522.8358061,1,-1,0,1,-2,0,-1,1
1584990522.8375952,0,1,0,1,-4,-1,0,0
1584990522.8375952,1,-1,0,2,-4,-2,1,-1
1584990522.8582275,-3,-1,-1,-3,-2,-1,-4,-1
1584990522.8582275,-2,0,2,-1,0,-1,0,-4
1584990522.86055,0,-2,0,-2,1,1,-3,0
1584990522.86055,-1,0,-2,-3,0,-1,-1,-1
1584990522.8718116,1,-3,0,0,-1,2,1,0
1584990522.8718116,-1,1,0,0,2,0,-5,-3
1584990522.880639,0,-1,1,-5,-1,0,-4,-2
1584990522.880639,-1,-2,0,-1,-2,1,-3,0
1584990522.8957665,0,-1,-2,-2,-1,2,0,0
1584990522.8957665,0,1,-1,-3,-1,1,2,0
1584990522.8970847,-2,-2,-1,-1,2,0,2,-1
1584990522.8970847,-3,-1,0,-1,2,0,1,0
1584990522.9181433,-1,0,-2,-2,1,-2,0,-1
1584990522.9181433,-3,-1,0,-2,1,-1,2,-2
1584990522.919594,-1,-1,-2,-2,-1,-2,-5,0
1584990522.919594,-2,3,-2,-3,0,-1,0,0
1584990522.931803,0,0,-1,1,-1,2,-2,0
1584990522.931803,-2,1,-2,1,0,1,-1,-1
1584990522.9406478,-1,-2,2,0,0,0,-1,0
1584990522.9406478,-4,0,-2,-1,0,-4,-1,-2
1584990522.9557765,0,-4,0,-5,-3,2,1,0
1584990522.9557765,1,0,-2,1,0,-1,3,2
1584990522.9574952,-3,0,2,0,-1,-2,-3,-1
1584990522.9574952,1,-2,-1,-3,-1,1,-1,0
1584990522.9781556,0,1,0,3,-2,-2,1,1
1584990522.9781556,-1,-1,1,1,2,-2,-3,0
1584990522.9799902,-1,3,-1,2,-1,0,1,-2
1584990522.9799902,-2,-1,0,1,-3,2,1,-1
1584990522.9918034,2,3,-4,-1,-4,1,-3,2
1584990522.9918034,1,-1,-2,0,-3,-2,-2,0
1584990523.0006495,-3,-1,2,2,0,3,-1,-1
1584990523.0006495,-1,-1,-1,-3,2,-1,1,-1
1584990523.0157628,0,0,1,2,-2,0,-3,0
1584990523.0157628,-2,-2,0,-1,1,-1,-1,-5
1584990523.017538,1,-2,2,-1,1,0,1,0
1584990523.017538,0,2,0,1,0,0,-3,0
1584990523.0382588,2,2,1,0,-3,1,0,-1
1584990523.0382588,0,0,0,-3,2,0,-1,1
1584990523.0403893,1,3,1,2,1,1,-2,-1
1584990523.0403893,1,1,1,-1,1,-1,2,0
1584990523.0517943,-2,1,-2,-4,-2,2,-1,0
1584990523.0517943,0,0,-3,-1,-1,-3,-1,-1
1584990523.0606773,-3,-2,-2,1,-1,-1,0,0
1584990523.0606773,-1,-3,1,1,-3,-4,-2,2
1584990523.0757709,-1,-2,-2,0,-1,-2,-1,-1
1584990523.0757709,-2,-1,1,-1,0,-2,-1,-1
1584990523.0775235,0,-3,0,0,0,-3,-2,-1
1584990523.0775235,1,2,2,-1,1,0,-4,0
1584990523.0981452,0,-1,-1,0,-3,1,-2,-1
1584990523.0981452,3,-1,-2,-4,-1,1,-5,0
1584990523.0996122,0,-4,2,-3,-1,1,0,-2
1584990523.0996122,0,-2,0,-2,1,-1,4,0
1584990523.1206448,3,1,-2,-3,-2,1,-2,0
1584990523.1206448,0,0,0,0,0,-1,0,-2
1584990523.1224456,2,-2,3,3,-1,-3,-1,-3
1584990523.1224456,0,-1,0,-1,-3,-2,1,-1
1584990523.1359715,2,1,0,-1,-3,-1,-1,-2
1584990523.1359715,1,3,-2,2,2,1,-3,-3
1584990523.1381714,-1,-1,1,-2,3,0,-2,1
1584990523.1381714,-1,0,-2,1,-2,-1,-1,0
1584990523.15811,0,0,-1,-5,-3,1,-1,4
1584990523.15811,2,-1,0,0,2,0,0,-1
1584990523.1602848,-1,-2,1,2,0,1,3,-1
1584990523.1602848,1,-2,-2,2,1,-1,0,0
1584990523.1806164,3,-1,1,0,2,-5,1,1
1584990523.1806164,1,0,-3,-1,1,0,1,-2
1584990523.1821878,0,1,-1,-2,-3,-1,-1,-3
1584990523.1821878,0,3,1,-1,-4,3,-1,2
1584990523.1962097,0,-3,1,1,-4,-2,-1,0
1584990523.1962097,-1,-1,0,-3,1,0,0,-2
1584990523.1994264,0,1,-1,0,-1,-2,-3,-1
1584990523.1994264,1,0,3,1,-1,1,-2,-4
1584990523.2191293,0,3,0,1,4,1,-1,0
1584990523.2191293,0,0,1,0,0,0,-2,0
1584990523.2244859,0,-2,-3,1,0,0,1,-1
1584990523.2244859,0,0,-2,-1,2,-1,-1,-1
1584990523.2406313,-3,0,-1,-3,-1,-3,-2,2
1584990523.2406313,-1,-1,-4,0,-2,1,1,-1
1584990523.242201,1,-1,-2,0,0,0,-1,-1
1584990523.242201,1,-4,-1,1,-1,-1,-5,-2
1584990523.255729,-3,-1,-2,-3,-3,0,-1,2
1584990523.255729,-1,-1,0,-1,-4,-4,-2,0
1584990523.2574868,-3,1,-1,2,1,-1,-1,1
1584990523.2574868,1,-5,-1,1,0,1,-1,1
1584990523.27815,0,1,2,-1,-1,-3,0,-2
1584990523.27815,-1,1,-3,0,-1,-1,-2,0
1584990523.2798223,-1,-3,-1,-1,2,2,-3,1
1584990523.2798223,-1,0,0,-2,1,1,-3,-3
1584990523.2997496,2,0,-4,-1,0,2,-2,0
1584990523.2997496,-1,-1,-1,2,-2,0,-1,-1
1584990523.3081517,-2,-3,-3,-3,-3,0,0,0
1584990523.3081517,1,0,0,-1,1,-1,0,1
1584990523.3158634,1,1,1,2,-1,2,-2,1
1584990523.3158634,-4,-3,-1,-1,-1,-2,0,1
1584990523.317648,-2,-4,0,1,0,-3,-1,1
1584990523.317648,0,-2,-2,0,1,-2,-4,-1
1584990523.3387127,0,0,-1,1,-1,-2,0,-1
1584990523.3387127,-1,-1,0,-1,0,-3,-1,0
1584990523.3443472,-1,0,-1,-3,-1,0,0,-5
1584990523.3443472,-1,1,0,-1,-2,0,0,1
1584990523.3606443,0,-1,-3,1,-1,0,1,-3
1584990523.3606443,-1,-1,-1,-1,0,3,4,2
1584990523.3625526,1,-4,0,-3,-2,-1,-1,0
1584990523.3625526,-2,1,-2,1,0,0,-3,-2
1584990523.374979,0,-2,0,-3,-2,-1,-1,2
1584990523.374979,0,2,2,-2,0,0,-3,1
1584990523.381757,-3,-1,-4,-1,-3,-1,0,1
1584990523.381757,-2,1,1,0,3,0,-3,0
1584990523.3981428,2,2,1,-2,0,-1,-1,-3
1584990523.3981428,-1,-5,-1,-2,2,0,-2,1
1584990523.3995998,-1,-4,0,-2,-2,-3,2,0
1584990523.3995998,-1,-1,-4,0,-1,-1,-2,0
1584990523.4206474,2,1,2,0,-1,-2,-1,1
1584990523.4206474,-2,-3,-1,2,-2,2,0,2
1584990523.4223325,-1,0,1,-3,-2,1,0,0
1584990523.4223325,-1,-1,-1,0,-2,0,-1,0
1584990523.4431813,0,-1,-4,0,0,2,-3,1
1584990523.4431813,1,1,1,-2,0,-3,1,-2
1584990523.4448967,0,-3,-1,1,-3,-1,-4,-2
1584990523.4448967,-1,1,-4,0,1,0,0,0
1584990523.4581208,0,2,0,-2,0,2,-5,-1
1584990523.4581208,2,-1,1,-1,0,0,0,-1
1584990523.4597397,0,-1,0,1,2,1,-1,-2
1584990523.4597397,3,-2,-3,-4,-1,0,1,0
1584990523.4806552,2,-1,-3,-1,3,-3,-1,-2
1584990523.4806552,-1,-1,1,1,1,1,-1,-2
1584990523.4820871,-2,-2,0,0,1,-2,0,0
1584990523.4820871,0,-1,-1,-2,-1,3,-3,-1
1584990523.494375,1,-2,1,-1,-3,-1,-3,-1
1584990523.494375,-3,-3,1,2,-1,1,0,-1
1584990523.5031784,-2,1,0,-2,0,-3,1,-1
1584990523.5031784,-1,-2,-4,-1,1,-1,-1,1
1584990523.518407,-3,1,0,-1,-1,-2,1,3
1584990523.518407,0,-2,-1,-1,0,-3,-1,1
1584990523.5204177,-2,-1,-1,0,0,3,-1,2
1584990523.5204177,2,-1,-3,-2,-2,-2,4,0
1584990523.540635,3,-1,0,-1,-1,-1,2,0
1584990523.540635,0,-3,1,0,0,0,-2,-1
1584990523.5424354,-2,-1,0,1,2,-3,-3,1
1584990523.5424354,-2,1,-2,-3,0,-2,0,-1
1584990523.5637512,-2,-4,1,-2,-1,1,-1,0
1584990523.5637512,-2,0,0,0,-1,1,-1,0
1584990523.565171,0,0,-1,-2,2,0,0,1
1584990523.565171,1,-1,-1,2,0,-2,0,0
1584990523.5856414,-1,-1,0,-1,0,-1,1,0
1584990523.5856414,-3,-1,-2,0,2,-2,-2,0
1584990523.5872352,-1,-3,0,-3,-1,1,0,0
1584990523.5872352,1,3,-1,0,2,0,-1,-1
1584990523.6005573,-2,-3,0,-1,0,0,2,-1
1584990523.6005573,-3,1,-1,1,-2,0,0,-1
1584990523.6021588,0,-2,2,0,2,-1,0,-2
1584990523.6021588,2,2,0,1,0,0,0,0
1584990523.6144133,-1,0,-1,0,1,-4,2,-1
1584990523.6144133,-1,0,1,-3,-1,0,-3,-2
1584990523.6231465,-3,1,-1,0,0,1,-3,0
1584990523.6231465,-1,-1,1,0,0,-1,2,-2
1584990523.6382794,0,-1,-3,-4,0,-1,0,0
1584990523.6382794,0,1,-3,-1,-5,-1,-2,-1
1584990523.6404812,-1,-1,1,1,1,-2,-1,0
1584990523.6404812,-1,0,0,1,1,-1,0,0
1584990523.6606276,2,0,1,2,-1,1,1,0
1584990523.6606276,-1,-1,-1,0,1,-3,0,2
1584990523.6624007,0,-4,0,-1,0,-2,-2,-1
1584990523.6624007,2,-2,-1,-1,2,-1,0,2
1584990523.6743603,-1,1,-1,0,0,1,-3,1
1584990523.6743603,-2,-1,3,-1,-4,-3,0,0
1584990523.689267,0,0,-3,-2,-1,0,-1,-3
1584990523.689267,1,-1,0,-1,-1,1,-1,-2
1584990523.6980984,-3,-1,-1,-2,-2,-1,0,2
1584990523.6980984,1,2,-2,0,-2,2,-1,1
1584990523.6997128,-1,-1,-2,-1,-4,0,0,1
1584990523.6997128,-3,-1,1,0,-1,0,-1,0
1584990523.7205832,-2,-2,4,-1,1,-2,0,-4
1584990523.7205832,-1,-1,0,-4,-4,1,-1,-3
1584990523.7223518,1,-1,-3,0,1,-1,-5,0
1584990523.7223518,-2,-5,0,2,-1,-1,1,1
1584990523.7342575,-4,1,0,-1,3,-1,1,-3
1584990523.7342575,0,-1,1,0,3,1,1,1
1584990523.743148,-1,0,-1,-1,-2,-2,4,-1
1584990523.743148,1,0,1,0,2,-2,-1,-1
1584990523.7581558,1,3,1,1,1,0,0,-3
1584990523.7581558,0,-1,0,1,1,0,-1,0
1584990523.7601867,1,-3,-2,1,1,-3,0,0
1584990523.7601867,1,0,-2,2,-2,3,1,-2
1584990523.780577,0,-3,-1,-1,-1,1,2,1
1584990523.780577,1,-1,-2,-2,-2,0,1,-3
1584990523.7820191,-1,-1,1,0,1,-1,-1,3
1584990523.7820191,-1,-1,1,1,2,0,-2,0
1584990523.7942379,0,-1,1,-2,-2,-4,1,-1
1584990523.7942379,1,1,1,-3,-1,-1,-1,-2
1584990523.8093753,-1,0,-5,-1,1,-1,-2,0
1584990523.8093753,1,0,1,1,1,1,0,-2
1584990523.818365,1,-1,0,0,-2,-2,1,2
1584990523.818365,-1,-1,0,-2,3,-3,0,-2
1584990523.8200715,-2,-2,0,-1,0,0,1,-1
1584990523.8200715,2,1,0,0,0,0,0,-2
1584990523.8406212,-2,2,-1,0,1,0,-1,1
1584990523.8406212,0,-2,-1,1,1,-1,-3,-2
1584990523.8425858,0,0,-1,2,1,-2,-1,-1
1584990523.8425858,0,-3,0,0,-1,0,-3,1
1584990523.8542862,0,-3,-3,-2,2,2,-3,-2
1584990523.8542862,1,-2,0,1,0,-2,-1,-1
1584990523.8631535,-2,-1,-4,-1,0,-1,-1,-1
1584990523.8631535,-3,-1,-1,0,-2,-4,1,-1
1584990523.8781164,-2,-1,0,-2,1,-1,0,-1
1584990523.8781164,-2,-3,0,0,-3,2,-4,0
1584990523.8797138,-2,-3,-2,2,-3,0,-3,2
1584990523.8797138,1,-2,0,-2,1,-1,-4,-2
1584990523.9006498,-4,-5,-1,-2,-1,-1,2,0
1584990523.9006498,0,-1,0,-5,-1,1,0,0
1584990523.9020243,-1,-2,1,2,3,-3,-2,1
1584990523.9020243,1,-1,2,1,-5,-1,-4,-1
1584990523.9142725,3,0,0,-1,-4,1,0,0
1584990523.9142725,-2,-3,0,-1,-3,-1,1,-1
1584990523.9231095,1,0,-1,2,-2,-2,0,-1
1584990523.9231095,1,1,0,-2,2,2,1,0
1584990523.9382,-3,-3,-1,-4,0,-3,-3,0
1584990523.9382,-1,2,0,1,0,0,-1,-5
1584990523.9399536,1,0,1,-1,-1,0,1,1
1584990523.9399536,0,-1,-1,-3,1,-2,0,-1
1584990523.9606283,2,1,-1,0,6,3,0,-1
1584990523.9606283,2,-2,-3,-1,-2,-1,-1,-3
1584990523.9623196,-3,0,-2,-1,0,-1,1,0
1584990523.9623196,-1,-2,-2,1,-2,-3,-2,0
1584990523.974369,1,-3,1,-1,-5,-1,-2,0
1584990523.974369,1,-1,-1,0,-2,-1,-2,-2
1584990523.983136,0,2,1,-1,-3,-1,0,0
1584990523.983136,0,-1,0,-2,1,1,2,2
1584990523.9980848,-2,-1,-4,-1,2,-3,-2,-2
1584990523.9980848,1,-1,-2,2,1,0,-3,1
1584990523.9995635,1,-1,3,-1,-1,2,1,-1
1584990523.9995635,4,-1,1,1,-2,-1,4,-1
1584990524.020658,-7,-3,-2,1,0,2,2,1
1584990524.020658,4,-2,-3,-2,-3,1,0,-2
1584990524.0220385,-5,0,0,-2,1,1,-2,-1
1584990524.0220385,3,-2,-1,3,-2,2,-2,-1
1584990524.034369,1,-1,1,-2,2,0,2,0
1584990524.034369,1,2,1,-2,-2,-1,2,-1
1584990524.0431328,1,0,2,-3,1,-1,-2,-1
1584990524.0431328,-2,1,-1,-2,0,-2,-1,0
1584990524.0579753,0,-1,4,-2,-2,-1,-2,-2
1584990524.0579753,1,-2,-1,4,-4,-1,-1,1
1584990524.064238,-1,-3,1,-1,-1,1,0,0
1584990524.064238,0,-3,1,-1,1,1,-2,-2
1584990524.0806272,-2,-2,-2,-1,-1,0,2,3
1584990524.0806272,-2,2,-2,-2,3,-2,-1,2
1584990524.0827286,1,1,-1,0,-2,0,-2,-1
1584990524.0827286,0,2,-3,-1,-1,0,0,2
1584990524.1106064,0,0,1,2,1,2,0,0
1584990524.1106064,2,-1,-1,0,-2,0,-3,0
1584990524.112331,-1,1,-1,-1,0,-1,1,-3
1584990524.112331,-2,-1,-1,-3,0,0,1,-1
1584990524.11808,-4,-3,1,-3,-2,1,-1,-1
1584990524.11808,0,-1,0,2,2,-3,1,2
1584990524.1195238,-1,-1,-1,-2,3,2,-1,-1
1584990524.1195238,-2,-2,0,-2,2,-2,-1,-2
1584990524.1405876,-1,0,-1,0,0,1,-1,1
1584990524.1405876,0,0,2,0,-1,-1,-1,-2
1584990524.142554,-4,-1,1,-1,0,1,2,2
1584990524.142554,1,-1,0,-2,3,0,-1,-1
1584990524.163085,-2,0,2,-2,2,-4,-1,-3
1584990524.163085,-4,-1,2,-1,2,-1,0,-2
1584990524.1648057,-1,-2,1,-4,-2,2,-2,-1
1584990524.1648057,-2,0,-1,-4,-2,-1,-1,2
1584990524.1778793,0,3,-3,-2,-3,0,0,-1
1584990524.1778793,1,0,-1,-6,-1,-1,-4,-3
1584990524.1844099,-2,-1,-2,2,-1,1,-3,2
1584990524.1844099,-1,-2,-2,1,1,1,-4,0
1584990524.2005954,0,-4,-2,-2,-1,0,0,0
1584990524.2005954,0,-1,0,-3,-2,1,2,-3
1584990524.202012,-1,0,0,0,-3,1,2,1
1584990524.202012,-1,2,2,2,-2,-3,1,-1
1584990524.2231088,-1,-1,-2,-5,-5,-2,1,2
1584990524.2231088,0,0,2,-1,-4,3,-1,-1
1584990524.2248414,2,-4,-1,1,-1,0,1,2
1584990524.2248414,-2,1,-2,-3,-2,-1,-2,-3
1584990524.2382145,-1,0,-3,-3,1,-2,1,1
1584990524.2382145,-1,-1,0,-1,1,-1,-1,1
1584990524.24042,-1,-2,2,1,0,0,-1,0
1584990524.24042,-2,1,-3,1,1,-2,-1,-3
1584990524.2606277,1,-2,0,-1,0,1,1,0
1584990524.2606277,1,-1,0,0,4,0,-2,2
1584990524.2625892,-1,-1,2,-1,-3,-3,-2,2
1584990524.2625892,2,2,-2,-3,-1,1,-1,0
1584990524.2830615,0,-2,-5,-1,1,0,0,2
1584990524.2830615,1,-2,-2,0,-1,-1,-1,-2
1584990524.2844977,-3,-1,2,-3,-1,-3,-1,0
1584990524.2844977,3,-1,1,1,0,0,1,2
1584990524.297431,1,-4,0,0,-1,-2,-2,1
1584990524.297431,-1,-4,0,1,2,0,0,-2
1584990524.3043327,1,1,1,0,0,-1,-2,-3
1584990524.3043327,-2,2,-3,1,-3,1,1,0
1584990524.3206263,-1,-3,1,1,-3,-1,2,1
1584990524.3206263,-1,-3,2,-3,-2,-3,0,-2
1584990524.322048,0,0,-1,-1,2,0,0,-1
1584990524.322048,-1,-1,0,-2,-3,0,-2,-4
1584990524.3431702,-1,1,-3,-1,-2,1,0,-1
1584990524.3431702,0,-1,-4,-1,1,-1,-1,-1
1584990524.3448827,1,-3,-2,-1,-3,-1,0,0
1584990524.3448827,3,1,0,-1,-4,-1,0,-2
1584990524.3567955,-2,-4,-3,0,-2,-1,-2,0
1584990524.3567955,0,0,0,1,0,0,1,0
1584990524.3656604,-1,-2,-4,-1,1,0,-2,-2
1584990524.3656604,-1,0,-2,-2,-1,-2,-2,0
1584990524.38809,-2,2,5,0,-1,-2,1,1
1584990524.38809,-3,-3,0,1,-2,2,-1,0
1584990524.38966,-2,0,-2,-1,-2,-1,-2,0
1584990524.38966,0,3,3,1,-1,-3,0,-1
1584990524.4032836,-1,0,0,-2,0,-1,2,0
1584990524.4032836,-2,-3,0,-2,0,0,-2,0
1584990524.4050715,1,-1,-2,0,2,-1,-1,1
1584990524.4050715,1,-1,-2,1,0,1,-1,-1
1584990524.4167733,-1,-3,0,-3,1,-1,-2,-1
1584990524.4167733,-2,-2,2,1,0,-1,-1,0
1584990524.4256356,1,-4,-1,-2,1,-1,-1,-2
1584990524.4256356,-2,2,-1,0,2,-1,1,-4
1584990524.4406145,-3,1,-1,1,0,1,-1,-1
1584990524.4406145,2,1,-2,1,-1,0,0,2
1584990524.442443,0,0,0,-4,-4,-2,-1,0
1584990524.442443,-3,3,-1,-1,-2,2,-1,1
1584990524.463124,1,1,0,-1,3,-2,-2,1
1584990524.463124,-1,3,1,0,-3,1,-2,-1
1584990524.4648075,-1,-1,-2,1,-1,1,0,-1
1584990524.4648075,-1,0,0,-1,4,2,0,-1
1584990524.4767294,-1,-1,2,-1,-1,-2,2,2
1584990524.4767294,-3,-3,0,-1,0,-2,0,-1
1584990524.4856768,-1,-2,0,0,0,4,0,1
1584990524.4856768,-1,0,2,-1,-2,1,-3,-2
1584990524.5005934,1,4,-1,-5,-1,-1,1,-5
1584990524.5005934,1,-3,-3,-1,0,2,0,1
1584990524.502016,1,-2,2,3,1,2,-2,0
1584990524.502016,0,0,0,-1,0,-3,0,2
1584990524.5232131,-1,-4,0,-1,-4,1,-2,0
1584990524.5232131,-1,-1,1,0,-2,-1,-1,-2
1584990524.5249367,0,-1,-1,0,-2,1,-2,-1
1584990524.5249367,-1,0,0,-1,-1,0,-1,3
1584990524.5368173,-1,4,-2,0,1,-3,-2,0
1584990524.5368173,0,1,-1,-1,1,-2,-1,1
1584990524.5455966,-1,-2,-1,1,2,-4,0,-1
1584990524.5455966,-1,-2,2,2,0,-1,1,-3
1584990524.5606055,0,0,0,-3,1,0,0,0
1584990524.5606055,-1,-2,-4,-1,0,0,0,1
1584990524.5625322,0,1,0,-2,2,-1,-1,-4
1584990524.5625322,0,-1,-2,-1,-1,-1,2,0
1584990524.58307,1,0,-1,1,0,2,-1,-3
1584990524.58307,-3,-2,-2,0,2,2,0,1
1584990524.5844967,-3,0,0,0,-1,2,0,1
1584990524.5844967,-1,2,1,0,-4,0,0,0
1584990524.596676,1,1,0,-2,0,-2,1,-3
1584990524.596676,-2,-1,0,1,1,-3,-3,1
1584990524.6055734,-3,-1,-1,-1,-1,-3,0,0
1584990524.6055734,-2,0,-2,-1,-2,0,-1,1
1584990524.6205864,-1,0,1,-1,-1,-1,0,-1
1584990524.6205864,2,-4,-3,1,0,-1,0,-1
1584990524.6220038,-1,0,0,0,2,1,3,0
1584990524.6220038,2,1,-2,1,1,1,0,0
1584990524.6435666,-1,-3,1,-1,3,-3,-3,-1
1584990524.6435666,-2,-2,0,1,2,-1,2,-1
1584990524.645154,-2,0,-4,-2,0,0,-2,-4
1584990524.645154,-3,0,-1,-3,-2,2,-1,-1
1584990524.656802,-1,0,-1,-2,0,0,-1,-1
1584990524.656802,-3,0,-1,0,0,1,-1,-3
1584990524.6656327,-1,1,3,0,-3,-2,3,-3
1584990524.6656327,-2,0,0,1,-2,-3,0,-1
1584990524.6806095,-2,-5,-1,-1,0,0,-1,0
1584990524.6806095,1,-1,1,-1,0,-1,0,-1
1584990524.6824613,0,1,-2,-3,0,0,-3,-1
1584990524.6824613,-3,-1,-2,0,0,0,-2,0
1584990524.7031806,0,-1,-2,1,3,-1,0,1
1584990524.7031806,0,-2,2,-1,-3,-2,-1,-1
1584990524.7048857,-1,0,-1,0,-2,0,4,1
1584990524.7048857,-2,-3,0,-1,-1,-4,-1,-1
1584990524.7167585,0,1,0,2,-3,-1,0,-2
1584990524.7167585,-2,-1,-1,0,-1,2,2,-2
1584990524.7256021,0,-3,0,-2,1,-1,-1,-5
1584990524.7256021,0,-1,0,2,-1,1,-1,-4
1584990524.7406037,-1,-2,-1,-4,-3,0,1,-2
1584990524.7406037,-1,-3,1,-1,-1,-1,-1,-1
1584990524.7422612,-2,2,0,1,-1,1,-1,-3
1584990524.7422612,1,1,-2,0,-1,1,-3,0
1584990524.7631085,-1,1,1,-1,3,2,-1,1
1584990524.7631085,-1,-1,0,1,-1,-2,-1,-3
1584990524.7648458,-1,1,1,-1,1,1,1,-2
1584990524.7648458,-2,-1,-2,-1,-3,1,0,-1
1584990524.7767549,0,-1,0,-5,0,-1,2,0
1584990524.7767549,-1,-2,-4,0,-2,1,-1,2
1584990524.7856178,-3,1,1,1,-3,-3,0,0
1584990524.7856178,1,1,-1,0,1,-2,-1,-2
1584990524.8005402,1,-1,2,-4,-2,-2,0,0
1584990524.8005402,-3,0,0,1,0,0,0,2
1584990524.8019543,1,-1,-1,0,1,1,-1,1
1584990524.8019543,-5,1,-2,-2,-1,-1,-2,-3
1584990524.8233738,-1,-3,0,0,5,-1,3,-1
1584990524.8233738,0,-2,0,0,0,-2,0,0
1584990524.8252962,2,0,1,-2,-4,-1,-1,0
1584990524.8252962,-1,-3,-3,-4,0,-2,-1,0
1584990524.8368626,2,-1,-1,0,-1,-1,5,0
1584990524.8368626,0,-4,-1,-1,-1,-1,0,1
1584990524.845608,-3,-2,-3,-1,-4,-1,2,0
1584990524.845608,0,3,0,0,-3,-5,-1,1
1584990524.8606002,-2,-2,-2,0,-1,-2,0,0
1584990524.8606002,0,-4,0,-1,-2,0,1,-3
1584990524.8622518,-3,-3,-3,1,-3,0,-3,-1
1584990524.8622518,1,0,-1,-2,-2,-3,-1,-1
1584990524.882339,3,-2,0,2,-3,-2,-1,-1
1584990524.882339,-2,-2,-3,-4,0,2,1,1
1584990524.8973842,-4,-1,2,2,1,1,-1,-1
1584990524.8973842,-2,-1,0,-3,3,-1,0,-1
1584990524.8986738,0,-3,-1,-3,-1,2,-1,0
1584990524.8986738,0,-3,0,2,-4,1,1,0
1584990524.9056528,1,1,-1,2,-1,3,1,1
1584990524.9056528,1,1,-3,2,0,2,-1,0
1584990524.9205718,-1,-2,-2,-2,0,-1,-2,-5
1584990524.9205718,-1,0,1,2,1,-1,0,-2
1584990524.9220147,1,-2,1,-3,3,-2,-3,-2
1584990524.9220147,0,1,-1,-3,0,-1,-2,0
1584990524.9430737,-2,1,-4,-1,1,1,0,-1
1584990524.9430737,0,0,-1,1,-1,1,-2,-3
1584990524.944745,-2,-1,-4,0,2,0,-1,1
1584990524.944745,-3,0,-4,0,-3,2,-1,1
1584990524.9568012,0,-1,-2,-1,-2,-1,-1,-1
1584990524.9568012,-1,-4,0,0,-2,-2,-1,-1
1584990524.9718127,-1,1,1,0,-5,-1,-1,0
1584990524.9718127,1,-1,3,-1,-2,-1,-3,-1
1584990524.9805434,0,-2,0,2,-1,-1,0,-1
1584990524.9805434,0,-4,1,0,2,-3,-3,0
1584990524.9825695,-1,1,-2,-1,2,-3,-1,1
1584990524.9825695,-2,-1,0,-1,0,-2,-1,0
1584990525.003851,-1,0,-3,-3,1,0,0,0
1584990525.003851,-2,2,-2,5,1,-1,-1,-1
1584990525.005692,1,-1,-1,3,-2,1,2,2
1584990525.005692,-2,2,-2,-10,-3,-1,0,1
1584990525.0256746,0,-3,-2,-1,-5,-2,-1,2
1584990525.0256746,1,-1,2,-3,-2,-1,-2,-2
1584990525.0274968,0,-2,1,-2,-1,0,-1,-2
1584990525.0274968,-2,-1,0,1,-3,-2,0,3
1584990525.0405762,-1,-1,1,-1,-1,-4,-2,-1
1584990525.0405762,0,-1,-2,1,-1,-1,0,-3
1584990525.0423863,0,-1,-2,-1,2,2,-1,-1
1584990525.0423863,-1,1,0,-1,0,1,0,0
1584990525.063143,2,-1,2,0,0,-1,1,2
1584990525.063143,1,1,1,1,-1,-1,0,0
1584990525.0648,-1,0,0,-3,-2,-4,-1,0
1584990525.0648,0,-1,0,-1,-3,1,0,0
1584990525.08558,-3,-3,1,0,-2,-1,0,0
1584990525.08558,1,-1,-1,0,0,-1,1,0
1584990525.08702,0,0,2,1,0,3,0,-1
1584990525.08702,1,2,-1,-2,-3,-1,-1,-2
1584990525.1005266,0,-4,-1,1,1,0,0,-1
1584990525.1005266,-4,1,-3,1,1,0,-2,1
1584990525.1019742,-3,0,2,-2,2,0,-1,-2
1584990525.1019742,-2,-1,-2,-2,1,-1,2,1
1584990525.1231296,0,0,1,-1,1,-1,0,-1
1584990525.1231296,-1,-1,-2,-2,0,-3,-1,-2
1584990525.1247516,4,0,0,-1,-3,1,-2,1
1584990525.1247516,-1,-2,-1,1,1,1,0,1
1584990525.1455061,2,1,-3,0,1,-5,-2,-3
1584990525.1455061,-2,3,1,0,0,0,1,0
1584990525.1480753,1,1,-4,2,-2,0,0,0
1584990525.1480753,2,1,2,-1,-2,0,-1,-1
1584990525.160542,-1,-1,-2,0,-1,-1,-2,-1
1584990525.160542,-3,-2,1,1,1,3,3,-1
1584990525.1635842,-2,-1,1,-1,0,0,1,-1
1584990525.1635842,1,-1,0,-1,-1,-3,-1,2
1584990525.183098,-1,-4,2,0,1,0,0,-4
1584990525.183098,-1,-1,0,0,-2,-2,-2,0
1584990525.1845605,-1,-3,-1,0,-3,0,-3,-1
1584990525.1845605,-2,-2,3,1,2,2,-1,2
1584990525.2057889,-1,-2,-2,1,2,-1,-1,-4
1584990525.2057889,-2,1,-3,0,-2,-1,0,0
1584990525.2085822,0,-2,-1,1,0,0,1,-1
1584990525.2085822,-2,-2,-1,-1,1,-1,-3,-2
1584990525.2203777,-3,0,0,-2,1,1,3,1
1584990525.2203777,-1,1,0,0,-2,0,-2,2
1584990525.2267234,1,-1,1,0,-1,-2,-2,-2
1584990525.2267234,0,-3,1,2,-1,0,3,1
1584990525.2504244,-2,-3,-3,-1,-2,0,-3,-1
1584990525.2504244,1,-3,-3,1,0,0,-3,0
1584990525.2567575,2,0,-3,-2,1,3,-1,0
1584990525.2567575,-1,-1,-1,2,-4,1,-1,0
1584990525.2655675,2,0,0,0,-2,-1,-3,0
1584990525.2655675,-1,-4,2,4,2,1,-2,1
1584990525.2672036,0,-2,0,2,-1,1,-1,-1
1584990525.2672036,1,1,-1,2,-2,1,1,-1
1584990525.279211,1,0,1,-4,-1,3,0,1
1584990525.279211,1,-1,0,-3,2,-1,1,-1
1584990525.2880495,1,-2,0,-3,-1,-2,0,0
1584990525.2880495,0,-1,0,-2,1,0,-1,-2
1584990525.3031511,-1,4,0,1,1,-1,-4,-1
1584990525.3031511,-1,-4,-1,-1,0,-3,-1,0
1584990525.3048718,0,-1,-2,1,-2,1,0,-1
1584990525.3048718,-2,3,-2,-3,1,2,3,-1
1584990525.3256376,0,-1,-4,2,-5,0,0,-2
1584990525.3256376,0,-1,1,0,-2,1,2,-1
1584990525.3273315,1,0,-3,-1,-1,0,3,-1
1584990525.3273315,0,0,-1,1,-1,-1,1,-3
1584990525.3392801,2,3,1,1,-2,0,3,1
1584990525.3392801,-1,-2,1,1,2,-1,-1,1
1584990525.3480854,1,0,0,-1,0,0,0,-3
1584990525.3480854,-1,0,2,-3,-2,-1,0,-4
1584990525.3630588,-1,-1,1,-1,-1,-3,0,-2
1584990525.3630588,-1,-1,0,-1,5,-4,0,-2
1584990525.36472,-4,-1,2,1,1,0,-2,-2
1584990525.36472,-2,-1,0,-3,0,2,0,-1
1584990525.3856103,2,0,-2,1,-3,-2,2,1
1584990525.3856103,-4,-1,1,2,-3,-2,-2,-3
1584990525.3870075,-1,2,-2,2,1,0,0,1
1584990525.3870075,-1,-3,0,1,0,-2,0,-1
1584990525.3992162,-1,1,0,1,0,1,-1,-3
1584990525.3992162,-3,1,1,-3,1,0,1,1
1584990525.4081225,-2,1,1,-1,-1,-2,1,-1
1584990525.4081225,1,0,0,1,1,2,-3,1
1584990525.423168,0,0,-1,-3,1,-3,1,1
1584990525.423168,0,0,-2,-1,-2,-2,-2,0
1584990525.4249263,0,0,-3,1,1,-3,-3,-5
1584990525.4249263,0,1,0,-1,-1,1,0,0
1584990525.445584,1,2,0,0,-3,0,0,0
1584990525.445584,3,0,-2,1,-2,0,0,0
1584990525.447323,-2,0,-1,-1,0,-2,0,-1
1584990525.447323,2,0,-1,1,2,1,0,1
1584990525.459221,-1,-1,0,-1,-2,0,3,-1
1584990525.459221,0,-2,-1,-1,0,-2,-1,-1
1584990525.4756777,-2,2,-2,2,0,-1,-4,1
1584990525.4756777,-4,-3,-2,0,-3,0,-1,-3
1584990525.4830596,-2,-4,0,0,-1,-1,0,-1
1584990525.4830596,3,-1,-1,2,1,-1,4,0
1584990525.4847515,2,0,0,2,0,-4,0,-1
1584990525.4847515,1,0,-3,1,0,0,-2,-2
1584990525.5056295,0,0,1,2,-2,0,-1,0
1584990525.5056295,-3,-2,3,2,0,-1,1,1
1584990525.5074706,1,0,1,-1,3,1,1,1
1584990525.5074706,-1,1,0,-2,-2,0,-2,1
1584990525.5192165,-1,2,0,-5,0,-3,-4,2
1584990525.5192165,-1,0,-3,-3,-2,1,-4,-1
1584990525.528063,0,2,1,2,-2,-1,0,-1
1584990525.528063,-1,-3,-2,-3,1,0,-3,-2
1584990525.5430965,-1,0,0,0,0,-1,-2,-1
1584990525.5430965,1,-3,2,-1,2,-3,0,0
1584990525.5447392,-2,-2,0,2,0,-1,-1,0
1584990525.5447392,-1,-1,0,1,0,0,-1,0
1584990525.5655656,0,-1,1,-2,-3,-3,-1,-1
1584990525.5655656,3,0,0,-1,-1,-3,-3,1
1584990525.5672102,-2,0,-1,0,-1,0,-2,0
1584990525.5672102,-3,-2,2,2,0,0,-3,1
