timestamp,emg1,emg2,emg3,emg4,emg5,emg6,emg7,emg8
1584990283.6665244,0,1,1,-3,0,0,-2,-3
1584990283.6665244,-4,-4,-4,-2,2,0,-4,1
1584990283.6679986,3,-4,3,-1,1,-3,0,-1
1584990283.6679986,4,-4,-2,0,1,-1,-3,1
1584990283.697654,-3,0,-3,1,1,0,-2,-2
1584990283.697654,2,6,4,2,0,-1,-3,-1
1584990283.6989996,7,-6,-1,-1,0,1,-3,8
1584990283.6989996,3,-3,1,0,1,0,1,-5
1584990283.70463,-27,3,-2,-2,-1,0,-1,-9
1584990283.70463,-3,3,-4,2,-3,0,-2,-5
1584990283.705712,4,-4,0,-4,-1,3,4,1
1584990283.705712,2,-5,0,1,-2,0,2,-1
1584990283.7264848,1,1,-3,-4,-2,0,1,3
1584990283.7264848,11,5,2,0,2,0,1,-1
1584990283.7278044,-30,0,3,-1,3,-2,-2,-4
1584990283.7278044,6,-4,0,-3,-1,2,-2,0
1584990283.7501678,3,-1,-6,-4,-3,-3,0,-2
1584990283.7501678,1,3,-1,0,-1,-2,1,2
1584990283.751547,-7,-4,-3,0,0,0,-2,-3
1584990283.751547,4,2,2,0,1,0,-1,-1
1584990283.7640185,0,-3,-1,0,-1,-1,0,-4
1584990283.7640185,-1,3,-4,-1,0,-2,-3,-1
1584990283.765225,-2,1,5,1,1,0,1,2
1584990283.765225,-3,-6,0,-3,-2,4,0,2
1584990283.786519,5,0,-1,-2,1,3,1,-2
1584990283.786519,0,-4,-3,-1,1,-3,-1,-3
1584990283.787439,8,10,7,8,3,-3,2,0
1584990283.787439,14,-5,-1,-2,0,-2,2,0
1584990283.8097613,-28,-4,-5,-3,2,-1,-1,-3
1584990283.8097613,2,-1,-5,-2,-1,-1,0,-2
1584990283.8111112,1,-7,0,-2,0,1,1,-2
1584990283.8111112,3,6,10,5,2,0,-3,1
1584990283.8240817,-1,-6,0,-2,2,1,-2,-1
1584990283.8240817,4,11,7,3,-2,-1,-2,-1
1584990283.8254454,-18,-10,-6,-6,-1,-1,-3,-5
1584990283.8254454,3,-8,-6,-3,3,-2,-1,3
1584990283.846488,-5,-3,2,1,0,2,-4,-4
1584990283.846488,0,12,1,1,0,0,1,0
1584990283.8478124,3,-4,-1,0,-3,-2,4,1
1584990283.8478124,6,-5,-3,-1,-1,-1,0,4
1584990283.869744,0,-4,-3,3,-3,3,0,2
1584990283.869744,9,5,1,2,1,-3,1,3
1584990283.871228,-24,2,2,0,4,0,2,-3
1584990283.871228,3,5,1,0,-2,-1,3,0
1584990283.8839564,6,-2,-4,-1,0,-1,-2,1
1584990283.8839564,-1,-1,-5,1,1,1,1,-2
1584990283.8852744,4,-2,3,1,-3,0,-1,2
1584990283.8852744,0,-3,0,0,1,1,1,-1
1584990283.9065025,-2,-7,-5,-3,-1,1,0,1
1584990283.9065025,-4,4,-6,-2,-3,-3,-4,1
1584990283.9077802,2,4,-1,-1,-1,0,-2,-1
1584990283.9077802,-1,-8,5,2,1,-2,0,-1
1584990283.9296098,1,6,3,-1,0,-4,1,2
1584990283.9296098,-11,-6,-2,-3,-1,-3,-3,-2
1584990283.9306667,1,4,-3,-3,1,-3,-1,-1
1584990283.9306667,4,6,-1,-1,1,-2,0,2
1584990283.9439652,1,2,4,5,0,0,1,1
1584990283.9439652,8,-1,-3,-2,-1,-1,-4,5
1584990283.9447472,-10,-4,-5,-2,1,-2,-2,-5
1584990283.9447472,0,-10,-2,0,-1,1,0,0
1584990283.9665134,1,9,2,-5,-3,-2,-2,3
1584990283.9665134,0,4,-3,2,-1,2,1,5
1584990283.9678166,13,4,3,-1,3,0,-2,0
1584990283.9678166,-18,-8,-3,-1,-3,-2,-3,-6
1584990283.9898527,6,1,1,-2,1,-1,-3,0
1584990283.9898527,2,1,-3,-1,-2,0,-3,2
1584990283.991561,-4,-3,-3,-1,1,-1,-2,-2
1584990283.991561,-2,-6,-1,-2,-1,1,-2,-2
1584990284.0040336,2,3,4,3,3,-4,-2,0
1584990284.0040336,5,4,0,0,-3,-2,0,1
1584990284.005311,-16,-1,4,2,-1,0,-1,-5
1584990284.005311,3,0,-5,-1,-2,2,-3,-3
1584990284.026478,3,-5,-5,0,-7,0,1,1
1584990284.026478,3,0,-1,-1,-1,-1,1,1
1584990284.027837,0,-4,-3,-3,0,-1,0,-2
1584990284.027837,2,0,1,0,-2,-1,1,0
1584990284.0568252,-1,1,2,2,-3,0,0,-2
1584990284.0568252,1,7,0,1,3,-1,-1,-2
1584990284.0660152,3,-3,-3,-4,-1,0,-2,-1
1584990284.0660152,-14,-9,-4,-1,0,-4,-2,1
1584990284.0676734,6,5,1,-2,2,-1,2,4
1584990284.0676734,-1,2,1,3,0,-3,1,-1
1584990284.0681255,-7,-3,-2,0,0,0,-2,-12
1584990284.0681255,4,-7,-1,-4,0,-1,-2,3
1584990284.0865107,4,-2,-1,-2,-1,-1,-1,-3
1584990284.0865107,1,-3,-7,-1,-3,-1,0,0
1584990284.0874074,-2,1,1,0,2,1,-2,3
1584990284.0874074,-2,7,4,1,0,0,3,-10
1584990284.109803,-3,-4,-2,-2,-5,-1,-1,1
1584990284.109803,-1,0,-4,0,-3,-4,-1,2
1584990284.1107056,-2,-3,-3,-5,0,2,1,-2
1584990284.1107056,-3,4,-1,-3,-2,5,-2,0
1584990284.1241286,15,-7,0,-3,0,-1,2,2
1584990284.1241286,-1,13,4,0,1,-1,0,-3
1584990284.1254587,-3,-5,-5,-5,0,0,-2,-5
1584990284.1254587,-1,-3,1,-2,-2,2,0,0
1584990284.146483,14,2,2,3,2,-2,1,2
1584990284.146483,-14,0,-5,-1,-1,1,2,-7
1584990284.1478112,5,1,1,-1,-1,1,-3,1
1584990284.1478112,-28,-4,-1,-1,-1,1,-5,-14
1584990284.1697118,12,-3,1,-1,-3,1,-4,8
1584990284.1697118,5,1,-1,0,-3,-1,0,0
1584990284.171125,12,3,0,-2,0,0,-1,0
1584990284.171125,-4,-5,2,5,2,-4,-2,-3
1584990284.1839497,-14,-1,-6,0,4,1,-2,0
1584990284.1839497,25,3,-2,-1,0,2,5,10
1584990284.1852396,9,9,6,2,3,2,-1,16
1584990284.1852396,-101,-16,-7,-3,0,-4,-8,-38
1584990284.206491,116,16,2,-1,-2,0,2,7
1584990284.206491,-85,-7,0,1,0,3,3,-7
1584990284.2078404,-31,-20,-10,-6,-5,-5,-16,-74
1584990284.2078404,-47,-20,-6,-9,-6,-15,-9,6
1584990284.2296453,9,4,0,-3,-1,6,1,10
1584990284.2296453,10,22,8,6,4,11,17,28
1584990284.2310321,37,-1,4,6,2,-25,-3,-15
1584990284.2310321,24,-1,-2,-5,-7,-9,-2,21
1584990284.2432969,0,-3,1,-3,3,-11,-3,41
1584990284.2432969,-20,-4,-7,-3,-12,-5,5,-77
1584990284.2514837,43,-10,-4,-5,-7,-12,-6,2
1584990284.2514837,-47,2,4,1,-2,22,8,36
1584990284.266508,-63,0,4,-1,2,-5,-9,33
1584990284.266508,50,27,16,10,7,3,17,-11
1584990284.267852,-128,-128,-61,-40,-35,-36,-73,-128
1584990284.267852,51,32,8,5,1,8,14,127
1584990284.2962346,-128,-8,10,7,9,16,1,-47
1584990284.2962346,119,2,1,-2,0,-16,-17,24
1584990284.3039896,-128,-21,-6,-6,-4,-11,7,39
1584990284.3039896,-17,4,7,7,3,14,36,-45
1584990284.3121712,-79,-46,-14,-10,-6,-19,-44,-128
1584990284.3121712,127,39,7,3,3,21,28,58
1584990284.3133974,-119,-9,5,10,8,5,-1,12
1584990284.3133974,127,39,0,6,5,20,76,127
1584990284.3346496,-105,-63,-18,-16,-16,-41,-111,-128
1584990284.3346496,-128,0,-5,1,0,-12,20,6
1584990284.335768,110,35,15,9,-42,-23,-5,47
1584990284.335768,-128,-70,-26,-10,58,25,7,-24
1584990284.3496356,-85,-8,-2,1,40,21,11,-11
1584990284.3496356,115,34,11,1,-52,-26,32,64
1584990284.3509386,-128,-32,-9,-3,17,-29,-19,25
1584990284.3509386,-103,-46,-3,-4,-10,12,-5,-112
1584990284.3722622,127,41,4,5,27,8,-33,96
1584990284.3722622,-116,-16,-11,-9,-13,5,2,-49
1584990284.3737564,-128,-8,3,-1,-9,37,30,94
1584990284.3737564,-12,1,2,8,-5,-13,36,-33
1584990284.386436,-22,-24,-6,-5,-7,-33,-21,26
1584990284.386436,127,-9,-30,-11,-2,13,11,-51
1584990284.38735,-65,36,51,10,8,11,-7,7
1584990284.38735,-11,2,-12,-4,1,-6,-8,-70
1584990284.418963,-20,-14,-7,-2,-10,-34,12,-128
1584990284.418963,127,-2,-7,9,10,1,-1,42
1584990284.4198444,127,18,-5,-10,-6,-10,-8,-28
1584990284.4198444,-80,-6,6,-1,-21,-29,20,-128
1584990284.432168,40,15,5,0,-75,31,20,47
1584990284.432168,-16,-4,-1,21,95,0,37,89
1584990284.4334757,-107,25,22,6,26,-2,29,-85
1584990284.4334757,95,-71,-40,-19,-11,-55,-66,61
1584990284.446912,-59,18,3,6,-32,-128,-22,-128
1584990284.446912,-12,6,13,9,38,98,23,89
1584990284.4483025,-62,-5,14,17,-14,76,51,31
1584990284.4483025,37,19,3,-6,-5,-37,5,-47
1584990284.469669,36,22,-5,0,-10,-8,-2,-31
1584990284.469669,5,10,-9,-8,-2,19,-30,23
1584990284.4705822,-26,16,9,-2,-14,6,67,-1
1584990284.4705822,36,28,12,11,6,7,-33,110
1584990284.492265,-61,-4,-12,-4,-1,-6,-8,-16
1584990284.492265,64,7,7,1,-1,8,7,-16
1584990284.4937856,-82,-6,-11,2,1,1,17,33
1584990284.4937856,-99,-23,6,-3,3,5,16,-14
1584990284.5065088,-56,-9,-4,-6,-8,-7,-24,-71
1584990284.5065088,127,58,22,15,10,7,-41,127
1584990284.5074916,-32,-17,-4,-2,0,-3,-24,-128
1584990284.5074916,-29,-17,-9,-4,-35,-5,-28,34
1584990284.5371294,-5,-46,-23,-8,52,-3,-17,-26
1584990284.5371294,98,14,4,0,-50,-54,21,-30
1584990284.5380926,-128,-10,-13,-5,-42,68,-10,-30
1584990284.5380926,8,-12,4,5,2,-11,17,9
1584990284.5521789,-53,17,5,7,-75,27,22,0
1584990284.5521789,15,38,9,20,126,24,0,49
1584990284.5530815,127,-1,-5,-8,-71,0,-1,12
1584990284.5530815,58,23,9,11,38,7,26,103
1584990284.5663726,-20,-24,-5,-10,-12,-44,-39,-128
1584990284.5663726,33,11,-1,-2,-8,-1,-27,127
1584990284.5671213,-128,-11,-1,0,-1,14,-6,-104
1584990284.5671213,2,10,3,3,-6,-17,18,107
1584990284.5897038,-19,9,4,4,2,-7,25,127
1584990284.5897038,-102,-18,-10,-6,-6,-3,-25,-128
1584990284.591133,123,23,7,0,-9,-10,-17,-89
1584990284.591133,-128,-1,8,4,-9,9,19,22
1584990284.6126463,127,-10,-8,-4,22,7,5,20
1584990284.6126463,-128,-17,2,-6,-1,-1,8,-16
1584990284.6138573,107,-5,-4,0,1,2,17,40
1584990284.6138573,51,39,15,8,2,2,13,77
1584990284.6264458,-52,-22,-5,-8,-11,-10,-43,-61
1584990284.6264458,-47,1,-2,-2,0,0,4,-8
1584990284.6277342,-13,-1,-4,1,0,-26,7,35
1584990284.6277342,-20,-9,-5,-2,13,-8,-1,-61
1584990284.6496153,-59,5,13,4,-27,26,-15,11
1584990284.6496153,47,-3,-6,-10,10,-39,-2,12
1584990284.6509519,18,-7,-1,3,70,42,18,54
1584990284.6509519,-85,-16,-3,-5,-13,-12,14,-72
1584990284.6721377,127,26,2,-2,-11,-19,4,46
1584990284.6721377,-65,15,5,4,-6,7,4,21
1584990284.6730347,44,-27,-14,-5,-10,-13,-14,-72
1584990284.6730347,66,5,-2,-2,-4,0,1,37
1584990284.6864376,-49,1,-4,-6,3,24,1,18
1584990284.6864376,-70,0,10,4,4,-1,12,17
1584990284.6873133,18,10,2,2,-1,5,8,6
1584990284.6873133,43,7,1,0,-4,-4,-3,11
1584990284.7097032,-43,21,17,5,5,3,-20,5
1584990284.7097032,119,-26,-19,-6,-8,-4,-8,-15
1584990284.711188,-4,1,4,1,-1,1,0,-5
1584990284.711188,-4,-3,-2,-5,-3,1,-2,4
1584990284.7321112,-31,-2,-2,-2,2,-2,-3,-4
1584990284.7321112,-22,-11,-8,-5,9,-5,0,-3
1584990284.7335143,13,5,-2,4,2,3,11,7
1584990284.7335143,-24,-4,-2,-3,2,2,2,-4
1584990284.7465024,7,-9,-11,-1,0,-5,-13,-2
1584990284.7465024,33,20,16,7,-1,-6,-10,11
1584990284.7478154,-128,-22,-3,-4,-6,-3,-6,-29
1584990284.7478154,20,-1,-15,-1,-1,-7,-3,-10
1584990284.769628,33,15,6,3,5,5,0,28
1584990284.769628,-122,-17,11,2,3,3,3,-19
1584990284.7705426,55,-4,-13,-6,-4,-3,0,22
1584990284.7705426,-19,-7,-1,-2,-2,-3,-2,-25
1584990284.7921882,12,13,7,3,4,6,4,6
1584990284.7921882,-52,28,20,13,6,3,6,19
1584990284.7937543,-19,-24,-4,-4,-4,-2,-9,-5
1584990284.7937543,-18,-6,-8,-7,-1,-5,-6,-29
1584990284.8064606,-10,1,-5,-1,-3,0,4,4
1584990284.8064606,0,2,-1,0,-3,-3,-4,4
1584990284.8074076,1,1,5,2,0,-1,2,3
1584990284.8074076,3,-5,-1,2,-1,1,22,1
1584990284.829625,9,-1,3,-2,0,4,11,3
1584990284.829625,-10,-1,2,-2,-4,-7,-52,-9
1584990284.8308635,0,-1,-1,0,-4,-6,7,-6
1584990284.8308635,-2,-4,-2,-5,-3,1,10,-4
1584990284.85216,4,-2,-3,2,2,8,10,4
1584990284.85216,1,1,2,2,-2,-12,-42,-1
1584990284.853449,-4,-1,2,-2,-2,-6,21,-7
1584990284.853449,0,5,4,-1,0,3,16,6
1584990284.8663847,2,-9,-8,-3,2,5,6,7
1584990284.8663847,1,8,0,1,0,4,-11,2
1584990284.8675187,5,-1,-1,2,-2,2,8,-12
1584990284.8675187,-10,-8,-9,-3,-1,-2,6,10
1584990284.8902001,2,-6,-3,4,0,2,6,-2
1584990284.8902001,2,1,6,2,-1,4,11,-6
1584990284.891607,12,-5,-6,-2,0,11,27,10
1584990284.891607,35,-8,-3,-2,-4,-3,-22,-3
1584990284.913287,-105,-3,2,-3,-3,-17,-43,-35
1584990284.913287,19,3,-1,3,-3,-2,7,1
1584990284.914179,15,0,-1,-4,0,-1,1,0
1584990284.914179,12,-3,-2,1,0,1,2,3
1584990284.9277954,-2,-1,0,1,2,2,11,3
1584990284.9277954,4,3,-2,-2,0,2,-2,-1
1584990284.9289105,0,1,4,3,3,3,0,0
1584990284.9289105,-2,-3,-3,-1,0,1,1,-1
1584990284.9496593,-2,2,-1,0,2,2,-2,0
1584990284.9496593,-3,1,-6,0,-2,2,-1,0
1584990284.9509437,2,-3,-3,-3,-3,-2,3,-3
1584990284.9509437,2,0,3,1,2,-3,-2,-1
1584990284.9728029,-1,4,1,0,-4,-1,-15,-1
1584990284.9728029,1,-7,-2,-1,-1,-4,-1,-1
1584990284.9737406,-1,-1,4,-1,0,0,3,1
1584990284.9737406,-4,-6,-8,-4,-2,-1,0,0
1584990284.9865036,0,11,9,1,0,2,0,1
1584990284.9865036,-1,-5,-6,2,1,0,1,1
1584990284.9874444,1,-2,8,3,1,-1,-2,0
1584990284.9874444,-1,6,1,1,1,-3,0,-1
1584990285.012066,-1,-5,-5,-4,1,-1,0,0
1584990285.012066,-1,-5,-6,-2,-1,0,0,0
1584990285.0138214,-3,-8,-5,-1,-3,-2,-1,-2
1584990285.0138214,1,6,8,-1,1,2,1,-3
1584990285.0321317,6,6,9,1,1,-2,6,5
1584990285.0321317,-5,-4,-4,-3,0,-1,0,-5
1584990285.0334342,0,-2,-6,-2,0,-1,-8,-2
1584990285.0334342,2,-11,-1,-2,3,1,0,-1
1584990285.0464551,-22,4,3,0,-3,1,1,-1
1584990285.0464551,6,-2,-4,-1,0,0,0,-1
1584990285.0477977,1,-3,-1,0,1,1,2,5
1584990285.0477977,5,-2,-1,0,-3,-2,0,4
1584990285.0696716,4,5,7,3,-3,-2,-1,1
1584990285.0696716,-2,-5,-7,-1,3,-2,-1,-3
1584990285.0706215,-3,-3,0,0,1,1,6,-3
1584990285.0706215,1,-3,-2,-1,-1,-3,2,1
1584990285.0921886,-6,1,-3,-2,0,2,-2,-2
1584990285.0921886,-4,-1,2,0,-2,-3,-10,0
1584990285.0936835,0,-3,-1,-2,-3,-2,-4,-5
1584990285.0936835,-1,-4,1,-1,-2,-1,-4,0
1584990285.106459,1,3,-1,1,-2,2,6,2
1584990285.106459,-4,1,-4,-2,0,4,7,1
1584990285.107365,0,-5,-2,1,0,2,-3,1
1584990285.107365,5,2,3,-2,-1,-1,1,2
1584990285.1305664,3,9,0,-1,2,-2,6,0
1584990285.1305664,1,0,-2,1,1,-2,-2,4
1584990285.1318898,-1,-4,-2,-2,-2,-1,0,-2
1584990285.1318898,-3,-3,0,-5,3,1,2,0
1584990285.152075,-1,-1,-1,1,-1,-2,-3,-1
1584990285.152075,0,-2,2,-1,0,-1,-2,-2
1584990285.1532226,0,-4,-1,-2,-3,1,4,3
1584990285.1532226,4,4,5,2,1,-5,-3,1
1584990285.166218,0,0,-1,1,-5,-5,-5,-2
1584990285.166218,7,10,5,4,-1,2,-3,2
1584990285.1743329,-4,-4,-4,-1,-1,-2,-1,-3
1584990285.1743329,1,-7,-1,0,2,-1,2,1
1584990285.1897964,1,5,-1,-1,-1,-2,1,4
1584990285.1897964,-6,2,2,0,-3,-1,0,-1
1584990285.1920905,-2,-8,-3,2,-1,1,-4,-5
1584990285.1920905,8,-2,-1,1,2,1,-1,5
1584990285.212279,7,6,0,-1,-2,2,-1,4
1584990285.212279,-7,1,1,0,2,-2,0,1
1584990285.2143953,9,0,-2,0,-3,-1,-2,1
1584990285.2143953,9,1,8,3,1,-1,1,2
1584990285.2345586,-22,-6,-8,-4,-3,-2,-3,-3
1584990285.2345586,6,-2,-1,-1,-4,-3,1,2
1584990285.235405,2,-1,-4,-1,-1,1,0,0
1584990285.235405,1,-3,-3,-1,0,1,-2,0
1584990285.2502997,-2,1,3,-3,-1,1,0,1
1584990285.2502997,-1,-1,-1,-2,0,1,-2,1
1584990285.2517161,-4,6,3,4,0,-3,1,-3
1584990285.2517161,1,-1,-5,-3,-1,-2,0,2
1584990285.2725346,-1,1,0,1,3,1,1,3
1584990285.2725346,2,-3,-3,-2,2,-4,0,0
1584990285.273417,-13,5,0,-2,0,1,-3,-5
1584990285.273417,1,-2,4,0,0,1,-1,-1
1584990285.294665,2,4,-3,-3,-1,-1,0,0
1584990285.294665,4,-2,-6,-3,-4,1,-1,1
1584990285.2955987,5,6,4,4,-2,1,-2,4
1584990285.2955987,2,-5,3,-1,-1,2,-3,-3
1584990285.3096838,0,4,-7,-1,-5,-3,-3,-1
1584990285.3096838,0,-5,-6,-5,-2,-5,-3,-4
1584990285.3111374,10,0,-1,1,1,-1,-4,5
1584990285.3111374,-6,3,3,0,1,-1,2,-13
1584990285.3321168,6,0,-8,-1,2,2,0,3
1584990285.3321168,-3,-5,-3,-4,-2,0,-1,5
1584990285.3333693,1,-4,-1,-3,-2,-2,0,-2
1584990285.3333693,6,-3,3,-2,-1,0,-1,4
1584990285.354637,-10,2,-2,2,2,1,1,-9
1584990285.354637,3,-4,1,-2,1,-1,-5,0
1584990285.3557065,0,-2,0,-3,-1,1,-1,-5
1584990285.3557065,1,-4,3,-2,0,-3,3,-3
1584990285.3695655,-1,3,1,2,3,-2,3,2
1584990285.3695655,-1,-1,0,-1,0,0,1,3
1584990285.3704143,-3,-3,-1,1,-3,-1,-5,-2
1584990285.3704143,1,-4,-8,-4,0,0,1,-1
1584990285.3921647,-4,0,2,-3,-2,0,-4,-8
1584990285.3921647,3,-2,0,3,4,-1,1,0
1584990285.3937654,-2,7,1,-2,-2,2,0,0
1584990285.3937654,-5,-9,-4,-4,0,2,-1,0
1584990285.414579,-1,3,-5,-1,-2,-3,-1,1
1584990285.414579,11,-3,-5,1,0,-1,-1,0
1584990285.415543,-27,-16,-2,-3,-1,0,-2,-3
1584990285.415543,-22,11,14,-1,-4,-1,-1,-7
1584990285.4296532,2,-3,-7,-6,-4,2,1,-5
1584990285.4296532,7,-5,-3,-1,1,0,-3,3
1584990285.4309187,5,0,-1,1,-2,1,0,1
1584990285.4309187,0,-6,0,-3,-1,3,-1,-1
1584990285.4520826,1,12,1,-3,-4,-1,-1,0
1584990285.4520826,-2,-1,-1,0,-2,2,-1,-4
1584990285.4531448,0,-6,-3,-1,2,-2,-2,0
1584990285.4531448,-1,-1,4,-1,-1,-1,1,2
1584990285.4746552,2,2,4,3,0,-1,2,3
1584990285.4746552,12,0,-3,1,-2,0,1,9
1584990285.4757738,21,1,1,-1,0,1,2,5
1584990285.4757738,-99,-13,-5,-2,0,-3,-7,-36
1584990285.4896955,-24,-6,-3,-5,-7,-5,-6,-29
1584990285.4896955,23,4,2,1,-1,0,2,13
1584990285.4911995,13,6,-2,1,-2,2,-1,5
1584990285.4911995,7,-4,-3,-1,0,1,2,1
1584990285.512403,-2,2,-4,1,-1,1,0,-1
1584990285.512403,3,2,-3,1,-3,0,-1,0
1584990285.5138066,-2,-4,2,4,3,-2,-3,-3
1584990285.5138066,-6,-6,-2,-4,1,-2,1,-2
1584990285.5345972,-5,-2,-4,-2,1,1,2,1
1584990285.5345972,17,9,4,4,2,1,3,6
1584990285.535592,-74,-15,2,2,2,0,-5,-18
1584990285.535592,26,2,-6,-3,1,-4,-1,3
1584990285.5571961,-8,-1,-2,-1,-1,-4,-2,4
1584990285.5571961,-22,2,1,-1,-1,-1,2,-9
1584990285.5586555,11,0,0,-3,-1,3,-2,5
1584990285.5586555,7,3,1,1,1,0,2,4
1584990285.5720427,16,-2,4,1,0,0,0,14
1584990285.5720427,-29,-4,-3,0,-3,-1,0,-18
1584990285.5727923,23,-3,-5,-3,-2,3,2,4
1584990285.5727923,-30,-3,-1,-1,-1,2,-1,-2
1584990285.5946343,11,8,4,0,2,0,0,13
1584990285.5946343,-4,0,-1,1,-3,-1,0,4
1584990285.5957246,-15,-7,2,0,3,3,-3,-19
1584990285.5957246,-13,-4,-1,-4,3,-3,-3,-22
1584990285.6096573,9,0,-2,-1,-1,2,0,8
1584990285.6096573,9,4,3,2,0,0,2,10
1584990285.6111624,30,-2,-4,-4,-1,-3,0,6
1584990285.6111624,-32,-11,-4,0,0,-2,-5,-7
1584990285.6325552,17,6,5,1,4,5,1,6
1584990285.6325552,-32,-3,-3,0,-2,1,-1,-9
1584990285.6337738,-11,-7,-4,1,-2,0,-1,-4
1584990285.6337738,11,1,6,-1,0,1,1,13
1584990285.654607,21,2,0,-2,2,0,4,-9
1584990285.654607,11,6,-1,1,4,-2,2,14
1584990285.655706,-67,-18,-4,-5,-1,-3,-5,-9
1584990285.655706,48,0,-2,0,0,-1,-3,5
1584990285.6695907,-26,0,0,-3,-5,-1,-3,22
1584990285.6695907,-1,-26,-10,-8,-5,-6,-11,-55
1584990285.6704834,51,14,12,3,1,4,5,40
1584990285.6704834,-88,-5,-2,2,1,-5,4,-5
1584990285.692176,-46,14,2,1,3,1,1,-45
1584990285.692176,68,-21,-8,0,2,43,-1,39
1584990285.6938403,-58,-28,-9,-15,-21,-58,-27,-89
1584990285.6938403,-5,17,6,3,4,-27,-5,-20
1584990285.713711,-15,12,3,6,9,5,-11,-36
1584990285.713711,20,8,7,8,6,-4,15,36
1584990285.7222404,-128,-41,-12,-15,-18,-33,-23,-99
1584990285.7222404,127,20,4,5,11,-70,-6,66
1584990285.7282546,-128,-18,6,1,12,98,10,26
1584990285.7282546,-85,-33,-17,-13,-5,30,-43,-128
1584990285.7371182,76,15,0,-7,-16,-17,13,81
1584990285.7371182,82,32,15,10,9,11,22,61
1584990285.7525384,127,-5,-11,-10,-12,11,-14,12
1584990285.7525384,-17,22,6,3,0,-14,-2,7
1584990285.7534428,88,17,7,1,-7,-14,16,-78
1584990285.7534428,-128,-77,-23,-11,-4,7,-28,-128
1584990285.774582,-10,36,11,3,-25,-8,13,45
1584990285.774582,59,-1,-2,-7,-7,-38,-20,-10
1584990285.7760751,-41,8,13,3,-29,-7,57,117
1584990285.7760751,-39,-34,-20,-14,-5,-9,-15,-68
1584990285.7882226,-100,-2,1,-5,-13,48,-8,-83
1584990285.7882226,-11,31,4,9,1,-3,-17,48
1584990285.797118,108,-46,-11,-4,26,-31,-28,-128
1584990285.797118,42,26,19,2,-7,-8,26,35
1584990285.8121748,-61,-11,-8,-5,-44,29,-39,24
1584990285.8121748,4,-26,-14,-1,52,-73,-18,-26
1584990285.8142042,-27,10,8,0,6,40,10,-26
1584990285.8142042,87,8,4,5,4,14,-6,85
1584990285.835046,-35,-7,-6,-4,-15,-13,-22,-90
1584990285.835046,-128,-7,-3,-4,-9,-30,-1,44
1584990285.836823,127,19,13,6,-5,-21,-1,27
1584990285.836823,-128,-42,-13,-15,11,-21,-43,-65
1584990285.848886,-40,6,1,7,-7,24,23,-103
1584990285.848886,-58,31,13,8,11,26,31,127
1584990285.8733141,127,13,-1,-2,-14,-65,-39,0
1584990285.8733141,-39,-4,-4,-8,7,30,26,86
1584990285.8747823,-86,6,7,2,-7,-15,-43,-87
1584990285.8747823,127,34,13,8,-1,10,32,127
1584990285.8794415,-128,-48,-18,-15,-7,-47,-33,-128
1584990285.8794415,22,4,2,0,-8,-10,10,4
1584990285.8945966,74,15,1,4,0,0,10,16
1584990285.8945966,-117,-13,2,-4,-3,-14,-14,2
1584990285.8960912,-38,13,-2,2,-25,43,4,11
1584990285.8960912,-33,-55,-33,-18,0,-37,-23,-8
1584990285.90825,127,49,20,11,17,-44,11,106
1584990285.90825,-128,-42,-7,-5,-4,66,-28,-88
1584990285.9246457,9,-14,-9,-9,-8,17,-5,-18
1584990285.9246457,-74,9,4,-1,-4,-50,8,60
1584990285.9320774,-107,-6,-8,1,5,18,-9,-97
1584990285.9320774,126,15,-4,0,-9,3,5,11
1584990285.9337962,-128,-14,9,8,10,29,-3,-50
1584990285.9337962,127,-4,-9,-4,-2,-13,22,32
1584990285.9545767,-78,14,4,-2,-1,-4,15,50
1584990285.9545767,107,14,10,8,5,-9,33,-34
1584990285.9568853,-100,-3,-4,-4,1,16,-5,12
1584990285.9568853,-64,8,7,2,3,-58,17,17
1584990285.9771569,22,11,-3,3,44,25,14,45
1584990285.9771569,-39,-18,-3,-2,-15,7,-16,-68
1584990285.9789762,65,15,6,-1,-3,-5,15,86
1584990285.9789762,-116,-27,4,-4,-16,-24,-21,-52
1584990285.9996097,50,24,1,-3,1,-10,9,43
1584990285.9996097,-128,-66,-23,-15,-18,-42,-37,-128
1584990286.0013852,-85,-14,-5,0,2,-10,-54,-128
1584990286.0013852,106,47,13,9,16,-3,-20,30
1584990286.0145988,95,2,-2,0,0,11,8,62
1584990286.0145988,-22,0,-9,-8,-25,-11,-2,4
1584990286.0160062,-41,-16,-2,0,14,23,1,-26
1584990286.0160062,-49,-12,-5,-10,-7,-19,-44,-128
1584990286.0370812,-24,-4,-7,0,1,6,9,43
1584990286.0370812,-71,-14,-4,-4,-3,15,-1,-65
1584990286.0384908,65,0,-3,0,3,70,-2,1
1584990286.0384908,-33,-5,-1,-7,-27,19,25,-7
1584990286.0521443,41,13,1,6,41,-24,-58,-15
1584990286.0521443,52,10,-1,-2,-12,1,14,2
1584990286.0538316,-45,-17,-4,-7,11,-11,-6,1
1584990286.0538316,-2,-2,3,4,15,-9,-2,14
1584990286.0746517,-12,-6,-8,-4,-6,-3,3,-36
1584990286.0746517,-6,17,6,0,-4,-3,17,6
1584990286.076156,5,11,5,4,4,33,25,49
1584990286.076156,21,-31,-12,-13,-11,20,-25,-67
1584990286.0882719,-66,-14,-8,2,9,9,16,-2
1584990286.0882719,43,-13,-5,0,-5,32,-13,42
1584990286.0971634,27,10,1,-2,-2,-4,-9,-62
1584990286.0971634,-19,13,13,9,8,8,24,67
1584990286.1126096,13,-11,-12,0,-2,-13,-30,34
1584990286.1126096,-6,8,-2,-1,-5,33,15,78
1584990286.114291,-38,-8,-2,-3,0,-9,-20,-50
1584990286.114291,51,5,0,4,4,3,4,11
1584990286.1345859,-21,0,7,1,1,0,6,6
1584990286.1345859,15,-2,-7,-2,-38,-17,7,24
1584990286.136031,-21,-4,-5,4,37,27,-3,-15
1584990286.136031,-7,-4,-1,-3,4,4,19,-8
1584990286.1482046,-8,4,-3,0,8,-6,-13,15
1584990286.1482046,34,-1,-7,-5,-6,-4,-7,1
1584990286.1571403,67,2,-1,0,1,15,-12,17
1584990286.1571403,-25,10,14,9,-2,-28,3,31
1584990286.1720831,51,-26,-18,-11,-9,-12,-15,-39
1584990286.1720831,110,15,-10,-5,-4,-3,8,32
1584990286.1735148,9,-20,1,-4,-3,-5,-26,-28
1584990286.1735148,-37,27,21,9,9,8,9,72
1584990286.1945984,-45,-26,-15,-9,-3,-2,3,-16
1584990286.1945984,74,14,-3,-1,2,-3,8,44
1584990286.1961288,1,12,6,4,11,43,25,47
1584990286.1961288,-24,-11,-1,-3,-5,-6,-12,-37
1584990286.2170804,28,8,-3,4,0,-8,2,-15
1584990286.2170804,40,-6,-2,-1,1,-6,0,5
1584990286.2188542,2,3,1,0,-6,-4,0,-24
1584990286.2188542,-1,0,-2,-5,-5,3,-4,5
1584990286.2321453,1,5,2,0,7,0,2,-12
1584990286.2321453,-3,-9,-4,-1,-3,5,-11,-2
1584990286.23378,4,6,7,2,2,6,14,-4
1584990286.23378,-3,0,3,1,1,11,-9,0
1584990286.2546291,8,3,-4,-4,-3,-2,-3,5
1584990286.2546291,-41,-8,-5,1,-5,-3,1,-17
1584990286.2561128,80,-2,-3,-3,-8,-14,-10,-5
1584990286.2561128,-35,0,-1,-3,1,12,-3,5
1584990286.277162,64,20,10,4,-1,1,9,20
1584990286.277162,28,-6,4,4,-2,-1,4,15
1584990286.2789476,-47,-8,-3,-2,1,-1,-5,-29
1584990286.2789476,27,6,-4,1,-6,-5,-6,-6
1584990286.2920952,-29,-3,-1,-2,2,1,0,-26
1584990286.2920952,-1,1,2,-1,-2,-3,4,5
1584990286.2935665,3,-1,-1,1,-2,6,2,13
1584990286.2935665,-2,-1,0,-4,0,1,5,7
1584990286.3153613,-1,-5,-12,-3,0,-2,-10,-8
1584990286.3153613,-39,2,10,2,2,-1,-7,0
1584990286.317391,31,4,8,3,1,1,8,-9
1584990286.317391,-12,-1,-1,1,-2,2,7,18
1584990286.3282378,-6,3,2,-1,-1,1,-13,-14
1584990286.3282378,-3,-2,-8,0,-1,-1,2,1
1584990286.3370876,-3,-4,-1,-3,1,0,2,-1
1584990286.3370876,-1,0,2,2,5,0,-17,1
1584990286.3521178,-3,0,-2,-3,-4,-3,-22,-2
1584990286.3521178,4,1,-5,-1,-6,-7,23,-1
1584990286.3537345,-1,-1,1,-1,-1,2,8,1
1584990286.3537345,-6,1,2,0,0,3,2,1
1584990286.375972,-7,4,-2,3,1,2,8,4
1584990286.375972,4,11,-5,-4,-1,0,-1,5
1584990286.3777614,-49,-25,-4,0,0,1,-20,4
1584990286.3777614,-67,-13,11,1,-2,-7,-5,-33
1584990286.3971746,37,16,0,-1,-1,1,9,15
1584990286.3971746,-3,0,-5,-4,1,2,4,3
1584990286.398878,-5,-6,-5,-4,-2,0,4,3
1584990286.398878,15,10,1,3,-1,0,0,-3
1584990286.4121354,-16,-16,-6,-1,-3,1,1,2
1584990286.4121354,-10,3,2,4,-1,-4,-4,-3
1584990286.414148,13,2,-1,-1,-1,-2,1,0
1584990286.414148,16,3,1,-3,3,-2,-1,1
1584990286.4345741,4,-1,-4,-1,2,0,0,0
1584990286.4345741,4,2,2,-2,-2,-3,1,1
1584990286.4360108,1,0,2,1,-1,-4,-1,0
1584990286.4360108,-1,-4,1,-1,-2,1,0,-3
1584990286.4570882,-4,3,-2,0,0,0,-1,0
1584990286.4570882,-4,0,-3,0,2,-4,0,0
1584990286.4585204,-3,-2,1,-3,-1,-1,3,-2
1584990286.4585204,4,-1,1,0,-2,0,0,0
1584990286.472748,5,3,-4,0,-3,-4,-7,-5
1584990286.472748,-7,2,-2,-2,-4,-2,-5,-3
1584990286.4796512,-3,-8,-1,0,-1,-2,-2,-3
1584990286.4796512,3,6,3,5,0,-2,3,3
1584990286.4945748,-4,10,0,0,4,2,-3,2
1584990286.4945748,6,-5,-8,-1,-1,-2,7,-2
1584990286.4960494,-28,-15,-5,-1,-1,-2,2,-1
1584990286.4960494,-2,15,6,1,1,2,0,0
1584990286.5170605,10,1,-1,1,1,-2,-4,4
1584990286.5170605,-1,-5,-2,-1,0,-1,6,-5
1584990286.5188603,-3,-5,-2,-6,0,-1,5,-4
1584990286.5188603,-1,-3,1,0,-2,0,-1,-6
1584990286.5320694,-5,2,-1,2,0,-3,4,9
1584990286.5320694,-5,3,1,0,-1,1,-7,4
1584990286.5338173,0,6,3,0,-2,2,1,-1
1584990286.5338173,1,0,-5,-1,0,1,14,35
1584990286.5550556,6,-1,-3,-2,-6,-4,3,-23
1584990286.5550556,-4,-1,0,1,1,0,1,14
1584990286.5567927,-1,0,2,0,-1,-3,-26,-11
1584990286.5567927,0,-7,-6,1,4,-1,29,9
1584990286.5761497,1,8,5,2,2,-2,-26,2
1584990286.5761497,1,-10,-7,-1,1,1,-9,1
1584990286.584644,-1,15,11,5,1,1,2,0
1584990286.584644,2,-6,-7,-4,2,1,5,2
1584990286.591407,4,6,1,2,-1,-2,-7,-5
1584990286.591407,2,-4,-4,1,0,1,10,5
1584990286.598232,-2,-7,-1,-2,-2,-2,3,0
1584990286.598232,-2,-2,-2,1,1,0,3,-1
1584990286.6145911,0,-1,-1,1,-4,0,-3,-1
1584990286.6145911,-1,-1,-2,-1,-1,3,-6,2
1584990286.6159942,0,1,-1,0,3,-2,5,0
1584990286.6159942,0,-5,0,-1,-1,-5,-7,8
1584990286.6370974,-3,-7,-6,-5,-6,-3,-6,-5
1584990286.6370974,11,16,-1,3,2,4,37,3
1584990286.6387696,-12,-4,6,0,0,0,-35,-2
1584990286.6387696,-4,-16,-8,0,0,2,9,-4
1584990286.6514041,-3,8,-3,0,-3,-1,2,-6
1584990286.6514041,2,-4,-1,-3,-1,1,3,2
1584990286.6582377,0,-4,-2,-2,1,2,3,2
1584990286.6582377,2,-4,-3,-2,1,1,-1,-1
1584990286.6822822,-1,2,0,-3,-5,-3,0,9
1584990286.6822822,0,0,1,2,1,1,0,-10
1584990286.6840808,2,-4,-2,-3,4,-2,-5,1
1584990286.6840808,-3,-1,1,0,0,-3,-3,-2
1584990286.6971679,1,5,-2,3,-1,-1,-1,-6
1584990286.6971679,2,-3,0,-1,-1,0,-1,8
1584990286.699032,0,1,4,-4,2,1,-1,-1
1584990286.699032,-1,-3,-10,-2,-1,4,-1,-3
1584990286.7108011,-4,-1,-5,-1,2,0,4,-3
1584990286.7108011,1,8,7,5,1,0,-1,0
1584990286.7196434,-3,6,5,4,-4,0,-3,-1
1584990286.7196434,-1,-9,-9,-2,-2,-1,0,1
1584990286.7345943,-1,-1,-2,-1,0,-4,-3,3
1584990286.7345943,3,6,4,1,0,-3,-2,2
1584990286.736002,-1,-6,2,-2,0,-1,0,0
1584990286.736002,-1,4,3,-1,-2,-1,-1,-1
1584990286.7571077,-2,-2,-7,2,-1,-2,-3,-1
1584990286.7571077,0,1,-1,1,-1,2,2,-1
1584990286.7585003,-2,1,1,1,1,3,-2,1
1584990286.7585003,-1,-8,-1,-3,1,0,1,-2
1584990286.770738,4,2,-4,-2,-1,0,-2,0
1584990286.770738,-4,-3,-1,-1,-1,-1,2,-2
1584990286.7796354,1,0,-3,-3,-2,0,0,0
1584990286.7796354,2,1,1,-2,1,4,1,-2
1584990286.794611,4,-3,-1,-2,1,-1,-2,2
1584990286.794611,-3,3,1,1,-1,0,-1,-4
1584990286.7960207,0,-4,-6,-2,1,1,0,5
1584990286.7960207,-2,-5,0,2,-3,-3,-2,-11
1584990286.8171005,4,7,3,2,1,0,0,4
1584990286.8171005,0,-3,2,2,-1,1,-3,-6
1584990286.8188353,-2,13,-2,-2,-2,-1,3,2
1584990286.8188353,0,-3,0,4,1,-3,-2,1
1584990286.8311818,3,0,3,4,3,0,-1,-4
1584990286.8311818,-2,0,-6,0,-1,-1,2,0
1584990286.839725,9,-4,1,-1,-2,-1,-1,7
1584990286.839725,-16,-1,1,0,-1,-1,0,-7
1584990286.8546035,0,5,-4,2,-1,1,1,18
1584990286.8546035,2,0,-1,-2,1,-1,-11,-29
1584990286.8560886,16,1,-2,1,1,-1,3,8
1584990286.8560886,-14,0,-3,-2,1,0,-3,-2
1584990286.8771455,-9,-2,-3,1,-2,0,0,-2
1584990286.8771455,19,4,0,1,-1,-3,1,-1
1584990286.878993,-13,-2,-1,-5,-4,-1,-1,-16
1584990286.878993,-11,-3,-3,-4,1,-3,-1,-1
1584990286.8906686,9,5,-1,0,1,3,1,0
1584990286.8906686,2,8,8,-2,-1,0,4,6
1584990286.8995576,6,-1,-7,2,0,-3,-2,-1
1584990286.8995576,7,-3,0,1,0,-2,0,1
1584990286.9144766,-10,-3,-4,1,-5,-1,-3,-2
1584990286.9144766,6,12,3,1,-5,0,1,3
1584990286.9159658,4,-1,-3,-4,2,4,-3,0
1584990286.9159658,2,-5,-4,-2,0,2,2,1
1584990286.9446518,9,6,3,0,1,-2,1,3
1584990286.9446518,-3,-5,-2,2,1,1,-2,0
1584990286.9465551,-2,-3,-2,-2,0,0,-1,-8
1584990286.9465551,2,-2,-3,0,1,0,-4,1
1584990286.9507136,-1,3,2,-1,0,2,3,1
1584990286.9507136,3,9,9,4,4,1,0,2
1584990286.9596765,-1,3,5,4,-4,2,3,0
1584990286.9596765,1,-4,-3,1,-1,0,-1,1
1584990286.9744933,-1,-3,-4,-3,-3,-2,2,1
1584990286.9744933,4,4,1,0,2,2,1,-1
1584990286.975942,-6,-6,0,-3,-3,1,1,-8
1584990286.975942,0,-5,1,2,2,0,1,6
1584990286.9971457,-1,-2,-5,-2,-1,-4,0,0
1584990286.9971457,13,2,-2,1,-4,1,1,4
1584990286.9990396,-22,0,6,1,-1,0,0,-3
1584990286.9990396,2,1,-1,1,0,-2,2,-2
1584990287.010799,6,0,-3,-3,-1,3,-2,2
1584990287.010799,5,0,-3,-2,1,-2,-1,-2
1584990287.0196302,0,0,2,1,2,-2,0,1
1584990287.0196302,2,-7,2,-1,0,1,0,-2
1584990287.0345552,0,1,0,-3,0,0,2,0
1584990287.0345552,-3,-3,-1,-1,-1,1,-2,0
1584990287.036,5,1,0,2,-1,-3,0,-1
1584990287.036,-5,-5,-6,-2,-1,1,-3,-1
1584990287.0570703,-1,4,7,4,1,1,-1,0
1584990287.0570703,-1,-5,-2,-6,-1,-2,-3,0
1584990287.0584445,1,-10,0,0,-1,-5,1,-1
1584990287.0584445,1,7,-1,-3,2,-1,-3,-4
1584990287.0707712,4,-7,-5,-2,0,-1,3,0
1584990287.0707712,0,4,4,3,-3,0,2,4
1584990287.07963,1,-6,-2,-3,-1,0,-2,-1
1584990287.07963,-1,-5,-7,-4,2,-1,1,1
1584990287.0945842,-2,-7,5,0,-1,-2,-1,1
1584990287.0945842,1,11,8,2,0,2,-1,3
1584990287.095984,0,-4,-2,-1,-2,1,0,-3
1584990287.095984,-3,-8,-8,0,1,-1,-1,1
1584990287.1170497,-2,-6,-4,-4,1,-3,-2,-11
1584990287.1170497,2,0,-2,-1,4,-2,-2,-3
1584990287.11877,-1,-8,0,-3,1,0,-4,8
1584990287.11877,0,2,1,-3,-2,1,-1,-4
1584990287.1307657,2,-12,-6,1,-1,0,0,5
1584990287.1307657,-8,19,14,5,-3,2,2,-5
1584990287.1396055,17,5,5,2,6,1,3,14
1584990287.1396055,-40,-15,-7,-4,-3,-4,-8,-46
1584990287.154625,2,-4,-3,-2,-5,-4,-1,3
1584990287.154625,21,11,2,3,1,0,0,20
1584990287.1571698,25,-2,4,-5,-3,0,4,7
1584990287.1571698,-65,-11,-5,-4,1,-1,-3,-24
1584990287.177477,2,5,-1,-1,1,-2,2,4
1584990287.177477,9,2,-5,-2,0,-2,-3,-21
1584990287.1839068,-3,-6,-2,-2,-1,-3,2,5
1584990287.1839068,34,0,2,0,-1,1,3,13
1584990287.1907637,-24,5,-4,-1,-2,-4,-3,-6
1584990287.1907637,29,0,0,1,3,2,6,18
1584990287.2000587,8,10,14,3,3,4,3,1
1584990287.2000587,-29,-20,-6,-7,-2,-8,-15,-32
1584990287.2224274,0,0,-4,3,-2,-2,0,9
1584990287.2224274,21,6,-1,0,3,5,1,4
1584990287.2236826,-5,-3,-1,0,2,-5,3,19
1584990287.2236826,-24,-5,-2,-1,-4,5,-3,-40
1584990287.2371259,-18,5,0,3,-2,-1,4,27
1584990287.2371259,-9,-15,-4,-2,-2,0,-5,-17
1584990287.238435,5,3,-1,-1,-3,13,-1,22
1584990287.238435,-5,6,7,2,3,-16,6,20
1584990287.250837,54,24,9,8,10,12,3,28
1584990287.250837,-26,-9,-4,-4,-7,-11,-6,65
1584990287.2596085,-91,-11,-1,0,3,6,-1,-77
1584990287.2596085,127,8,-6,-1,1,15,-8,72
1584990287.2745566,-106,-16,-7,-3,6,-2,1,-8
1584990287.2745566,-12,8,3,1,2,-16,13,47
1584990287.2760391,50,-28,-4,-3,1,11,8,-44
1584990287.2760391,-38,6,-5,-3,-2,-5,0,24
1584990287.296239,-9,23,16,11,-5,80,49,81
1584990287.296239,36,-18,-16,-4,3,-57,-7,-93
1584990287.304663,24,4,7,1,2,4,24,89
1584990287.304663,15,-20,-13,-7,-28,12,5,65
1584990287.3195417,127,-5,-22,-5,51,16,-22,127
1584990287.3195417,-39,6,3,0,-45,-3,16,-120
1584990287.3212225,59,17,7,6,-27,5,-15,-24
1584990287.3212225,10,7,9,5,37,-10,13,32
1584990287.3331835,17,25,0,16,31,24,1,32
1584990287.3331835,-6,3,4,0,-86,-91,5,110
1584990287.342101,-29,-22,-11,-6,70,33,39,-95
1584990287.342101,-23,-7,-1,-4,-67,-84,-62,-91
1584990287.3570433,3,44,11,12,37,-7,-15,-27
1584990287.3570433,87,5,-3,0,-36,59,22,45
1584990287.3584497,127,22,-1,9,29,25,52,127
1584990287.3584497,-73,-21,-6,-10,-16,-22,-53,-128
1584990287.3870745,-105,-37,-21,-25,-33,-31,-19,110
1584990287.3870745,127,60,6,8,4,-6,-19,-128
1584990287.389053,74,46,31,15,2,39,15,46
1584990287.389053,-128,-36,-2,4,-18,17,-29,75
1584990287.3936446,30,-22,-24,-12,12,-39,-67,-93
1584990287.3936446,28,27,-1,-6,-44,-16,6,-94
1584990287.4027686,35,-2,4,3,-4,12,35,127
1584990287.4027686,-17,-1,0,-4,-9,39,8,-128
1584990287.4258273,-128,-9,-5,-6,4,-105,-23,-128
1584990287.4258273,127,-5,-9,5,42,41,53,127
1584990287.4273393,23,1,5,9,-90,-23,37,-69
1584990287.4273393,-128,-11,1,8,32,-38,-12,-4
1584990287.4395719,96,10,6,6,71,72,51,127
1584990287.4395719,27,-2,12,-14,27,49,-26,-11
1584990287.4414902,127,10,1,-1,-36,2,38,47
1584990287.4414902,-75,-23,-4,-8,-3,-25,-64,-128
1584990287.4532366,-90,2,-1,1,-12,-18,-2,7
1584990287.4532366,21,22,9,10,-6,8,34,1
1584990287.4621305,-25,-22,-16,-17,-22,-17,-17,117
1584990287.4621305,27,29,16,14,5,-2,49,92
1584990287.4770794,127,15,-9,-2,-4,3,-34,-29
1584990287.4770794,-18,-24,-4,-9,-2,-7,-1,-128
1584990287.4789827,-69,-19,0,0,5,7,18,-47
1584990287.4789827,-21,-13,-20,-8,-6,-13,-1,-27
1584990287.5000281,-44,17,16,3,-2,-4,14,21
1584990287.5000281,30,23,-1,2,2,-4,28,127
1584990287.5016565,-128,-24,-8,-6,1,1,-14,-128
1584990287.5016565,-27,-13,-7,-3,-1,-4,13,64
1584990287.513197,52,14,2,1,-6,-36,14,13
1584990287.513197,-28,2,2,-2,-41,67,10,6
1584990287.5221527,67,-3,-1,-4,17,-2,-40,3
1584990287.5221527,-116,-19,-13,0,76,36,34,94
1584990287.5370476,-116,-19,-9,-7,-36,-26,-35,-57
1584990287.5370476,104,-9,-5,5,26,35,4,-65
1584990287.5387845,-68,18,11,6,2,-14,11,77
1584990287.5387845,62,1,2,1,-6,5,-2,-67
1584990287.5595293,43,-1,-7,-7,-16,13,-27,-128
1584990287.5595293,-18,2,7,4,-9,-8,45,79
1584990287.5609324,-105,-16,-5,-4,-3,-8,-38,-14
1584990287.5609324,59,-2,-2,-2,-2,9,2,-9
1584990287.5731087,-22,17,7,-1,-2,-11,-2,127
1584990287.5731087,32,19,13,9,3,-11,1,-5
1584990287.5895634,-128,-17,-6,-6,1,18,12,85
1584990287.5895634,-17,8,2,0,10,-22,1,-93
1584990287.5970516,-5,2,-3,-3,-11,9,-42,127
1584990287.5970516,29,12,1,-7,4,-58,27,60
1584990287.598762,-95,-24,-6,6,27,30,-6,-13
1584990287.598762,26,18,5,-3,-21,17,5,-16
1584990287.6202426,14,6,-1,-3,57,34,3,0
1584990287.6202426,-12,-3,4,6,28,-21,-7,-35
1584990287.6219015,-12,5,3,-2,-22,12,2,38
1584990287.6219015,-84,-26,-10,-14,-36,-39,-51,-115
1584990287.6331706,-26,-5,-8,-5,-14,0,-11,-17
1584990287.6331706,15,10,3,1,-10,1,0,-35
1584990287.6421907,6,-1,0,-6,-6,4,-18,-26
1584990287.6421907,108,8,-6,-6,-10,-14,-21,79
1584990287.664598,-128,-36,-23,-10,-12,-24,-30,127
1584990287.664598,1,17,18,3,4,2,12,-128
1584990287.6664472,53,12,17,3,3,0,-2,84
1584990287.6664472,30,-6,-10,-1,-2,5,49,75
1584990287.679532,-51,2,-8,-2,-3,0,-42,-41
1584990287.679532,-26,0,3,2,2,1,0,2
1584990287.6809425,-13,-12,-5,-4,-3,-3,-8,-9
1584990287.6809425,40,-1,-3,1,0,2,5,13
1584990287.6931925,10,11,-2,-3,-4,6,2,20
1584990287.6931925,15,1,-2,2,4,-13,-4,-1
1584990287.7190733,-20,-7,-1,-2,4,11,-3,-3
1584990287.7190733,9,9,12,4,2,5,2,4
1584990287.7203782,-13,6,1,-1,3,-1,-1,1
1584990287.7203782,5,2,-1,1,3,-11,6,13
1584990287.7231724,0,-15,-5,-6,0,10,-6,-16
1584990287.7231724,-128,-15,-2,-3,-8,13,-3,-32
1584990287.7395313,52,11,-2,-5,22,-33,-6,79
1584990287.7395313,86,-7,-3,-1,-24,-45,10,46
1584990287.7412894,-128,3,4,2,21,23,-10,-10
1584990287.7412894,-50,-19,-7,-7,-2,8,-19,-128
1584990287.7531722,17,-4,-16,-3,-7,-8,-21,67
1584990287.7531722,-14,1,14,4,2,4,0,16
1584990287.7620835,99,16,5,3,-1,5,8,24
1584990287.7620835,-63,-32,-15,-9,-7,-8,-17,-59
1584990287.777014,34,6,0,2,-1,4,5,7
1584990287.777014,-20,-2,4,4,1,0,0,-8
1584990287.778443,17,-2,7,0,-2,-5,-2,-14
1584990287.778443,-26,-6,-4,-3,0,-5,0,-3
1584990287.7996175,9,6,-3,-2,-1,-1,3,22
1584990287.7996175,-3,-6,-1,-2,-4,-9,-8,-9
1584990287.8012607,41,-1,-2,-6,-5,-1,12,5
1584990287.8012607,-31,-6,1,0,2,0,-15,32
1584990287.81322,-13,-1,-5,-1,0,1,7,-46
1584990287.81322,17,-3,-2,1,-1,-2,0,2
1584990287.8221376,-22,17,11,-1,2,1,8,25
1584990287.8221376,49,-7,-7,-6,-2,0,0,18
1584990287.8370361,-9,7,-1,-4,0,-4,-4,-16
1584990287.8370361,-1,7,7,5,1,4,6,-12
1584990287.8387008,2,-9,-10,-4,-3,-2,0,59
1584990287.8387008,11,-4,-12,-4,-1,-3,0,-14
1584990287.859588,92,8,10,7,0,-1,0,31
1584990287.859588,-69,-13,-1,-2,-2,-4,-20,-49
1584990287.8670537,10,14,4,-1,-2,2,21,41
1584990287.8670537,-16,-5,-1,-1,5,3,2,-6
1584990287.873228,-24,0,-2,-2,-1,-1,-2,-5
1584990287.873228,62,4,-3,-2,-4,0,5,17
1584990287.882153,0,-7,-2,0,-1,1,1,-7
1584990287.882153,4,6,6,3,1,2,2,6
1584990287.8975232,2,6,-1,-1,0,1,0,-2
1584990287.8975232,-10,-12,-8,-5,-2,3,11,1
1584990287.9046583,0,3,2,2,-1,-3,-5,1
1584990287.9046583,-3,-2,-2,-3,0,-3,-12,-4
1584990287.9195707,1,-1,1,1,-1,-4,-8,-9
1584990287.9195707,4,-7,-1,-1,-1,1,3,3
1584990287.9214582,9,9,-3,-4,-4,-1,5,-2
1584990287.9214582,-22,-1,-4,-2,-2,-1,-2,-6
1584990287.942153,1,5,9,-1,1,0,1,-1
1584990287.942153,5,-2,-10,-3,0,2,-1,4
1584990287.9436944,0,-4,1,-2,-2,0,1,6
1584990287.9436944,32,4,1,1,0,2,8,4
1584990287.9570882,-63,-16,-6,3,-1,-2,-7,-21
1584990287.9570882,0,4,0,-2,-3,-2,-2,-7
1584990287.9587655,-10,-7,-1,-6,1,-1,-8,-29
1584990287.9587655,45,9,3,-2,3,4,12,34
1584990287.979535,-28,-7,3,1,0,-1,-17,-16
1584990287.979535,14,6,3,-1,0,-2,-7,-71
1584990287.980973,-2,-7,-2,-1,-1,-3,8,71
1584990287.980973,1,8,3,-1,1,4,5,-5
1584990287.9931982,-13,4,7,1,-3,2,4,-4
1584990287.9931982,-3,-8,-10,-5,-1,1,1,12
1584990288.002791,-4,-1,0,-1,1,0,-2,-1
1584990288.002791,0,3,8,4,-2,-4,3,0
1584990288.0161448,-1,4,2,1,1,0,-12,-2
1584990288.0161448,-2,-5,-9,-1,-3,0,3,1
1584990288.032142,0,3,5,3,-1,3,1,-1
1584990288.032142,-1,4,-1,-2,-1,1,5,-3
1584990288.0395014,1,-1,2,5,1,-2,-8,-3
1584990288.0395014,-5,-9,-6,0,1,-1,3,-1
1584990288.041275,1,1,0,0,-1,6,1,1
1584990288.041275,0,2,-3,1,-3,0,-2,-1
1584990288.0537198,0,0,-3,-1,-3,-3,5,-2
1584990288.0537198,0,-1,0,0,-2,2,-4,-1
1584990288.0621104,-2,-6,-1,1,0,0,-1,0
1584990288.0621104,2,4,2,-1,1,0,7,-3
1584990288.0775006,1,4,1,-3,2,1,3,0
1584990288.0775006,-2,4,4,3,0,-3,-12,0
1584990288.0832136,-3,1,4,2,4,0,9,0
1584990288.0832136,0,0,-3,-4,-1,2,5,-2
1584990288.0995374,-1,1,-1,-1,-4,0,-6,4
1584990288.0995374,-1,-6,-2,-4,0,-5,-18,-20
1584990288.100937,-2,-5,-2,0,1,-1,3,5
1584990288.100937,4,6,0,-1,2,-1,13,4
1584990288.113182,0,4,1,-2,2,2,4,-3
1584990288.113182,-3,-1,0,-3,-3,-1,-16,-14
1584990288.1227732,-4,-2,0,-3,-1,-9,-3,0
1584990288.1227732,3,-4,1,-2,2,3,-8,11
1584990288.1371017,-2,4,0,-5,-1,-1,10,-12
1584990288.1371017,-1,-6,-1,0,-1,-4,6,3
1584990288.1592746,4,-1,0,-1,0,0,1,21
1584990288.1592746,2,0,4,3,-2,3,10,1
1584990288.1606977,2,5,2,2,-6,-5,-7,-1
1584990288.1606977,1,0,0,1,-3,-3,-13,-6
1584990288.1670942,-1,-5,-3,-5,-4,2,13,-4
1584990288.1670942,0,1,-4,-3,1,0,-9,1
1584990288.173178,1,-4,-1,1,-1,-1,-3,-3
1584990288.173178,-1,8,11,0,-1,2,8,0
1584990288.182197,-2,-8,0,-3,0,3,0,-1
1584990288.182197,3,-1,-2,2,1,-1,4,13
1584990288.1970632,4,-1,-4,-1,-3,-3,-3,-4
1584990288.1970632,1,-2,2,2,-2,3,3,4
1584990288.1988847,4,2,1,-2,3,-1,-4,1
1584990288.1988847,0,-1,2,1,-1,0,-1,2
1584990288.2200148,-2,4,0,-2,3,-1,0,-1
1584990288.2200148,-1,-9,-5,0,0,0,-3,-5
1584990288.221409,0,-6,0,-3,-2,-1,2,0
1584990288.221409,-1,-2,2,0,1,0,0,-1
1584990288.2420938,-4,3,3,0,0,2,-2,-2
1584990288.2420938,-1,-2,-2,-1,-1,-1,0,-5
1584990288.2440295,2,3,-3,-4,-3,-1,-2,7
1584990288.2440295,-5,3,2,0,-2,-1,-4,-16
1584990288.257046,-3,-3,-1,0,-2,1,1,4
1584990288.257046,0,-6,0,1,0,-1,1,0
1584990288.2587996,4,-1,1,3,0,0,-2,0
1584990288.2587996,10,3,5,-1,0,0,2,0
1584990288.279572,-22,-5,-2,-3,1,-2,-5,-11
1584990288.279572,-2,4,-1,1,0,-1,1,-4
1584990288.2812693,7,-4,-4,-1,0,-3,2,5
1584990288.2812693,4,-8,-3,1,-2,1,-2,8
1584990288.3021045,4,11,2,3,-1,2,-3,-23
1584990288.3021045,2,-3,1,0,-2,-5,2,32
1584990288.3038661,4,-2,-1,-1,0,-1,-1,-6
1584990288.3038661,-11,0,-4,-4,1,2,0,-4
1584990288.3170488,0,-6,-4,-1,2,-1,-2,-5
1584990288.3170488,0,5,7,0,0,0,-2,1
1584990288.3184254,-1,-4,-6,1,3,-1,4,0
1584990288.3184254,-1,-1,0,-3,-3,1,-2,-1
1584990288.339544,0,4,-1,0,-4,-3,-3,-4
1584990288.339544,3,-4,-4,0,1,0,1,7
1584990288.3409405,-4,-1,3,2,1,-1,-5,-21
1584990288.3409405,-2,0,-4,-2,-1,-1,-3,4
1584990288.3627353,0,-4,1,-2,-3,-2,-3,-14
1584990288.3627353,6,-3,-10,-3,0,0,3,4
1584990288.364532,-4,4,3,3,0,-4,-4,-2
1584990288.364532,8,-3,-3,-1,4,0,-3,-2
1584990288.3770103,-19,7,2,0,-3,2,1,0
1584990288.3770103,2,-7,-5,3,2,0,-1,5
1584990288.378668,8,9,4,2,1,-4,1,0
1584990288.378668,9,-3,1,0,1,-3,-4,-1
1584990288.3995264,-8,-5,-3,0,-1,2,3,12
1584990288.3995264,0,2,-1,0,-1,-3,-1,2
1584990288.4012322,-28,-7,-4,-4,1,-1,2,-9
1584990288.4012322,8,1,-2,0,-1,1,0,1
1584990288.4222305,3,2,0,-2,-1,1,0,1
1584990288.4222305,8,7,5,2,-3,1,4,10
1584990288.4239428,3,-7,-7,-3,0,-3,-3,2
1584990288.4239428,10,-1,5,0,1,0,-1,4
1584990288.4370706,-13,9,5,3,1,-1,1,-10
1584990288.4370706,14,-4,-8,-3,1,-3,-2,7
1584990288.4388301,-19,-7,-2,-2,1,0,1,-15
1584990288.4388301,6,2,-4,-1,2,0,2,2
1584990288.4595947,2,-4,-4,-1,4,1,3,3
1584990288.4595947,-1,-4,1,1,-1,1,2,-8
1584990288.4612336,1,-2,10,1,1,-3,-2,1
1584990288.4612336,5,5,0,1,2,-1,0,0
1584990288.4821606,2,2,-3,1,-1,0,-1,1
1584990288.4821606,-6,-3,1,0,-3,1,0,-6
1584990288.483631,15,-5,-1,-1,0,-1,-2,7
1584990288.483631,-4,0,-1,0,-1,2,2,-5
1584990288.4967444,-4,1,-2,-1,-1,-4,-3,0
1584990288.4967444,1,0,-1,0,-3,0,0,2
1584990288.5030835,7,-3,5,1,-3,3,2,3
1584990288.5030835,30,4,0,4,2,-1,-2,6
1584990288.5195267,-31,-1,-1,-5,-4,0,-3,-12
1584990288.5195267,-18,-6,-1,-1,0,0,-3,-9
1584990288.5209134,9,1,3,-2,3,-2,-1,7
1584990288.5209134,7,5,-4,-4,-1,0,1,1
1584990288.5424032,9,-3,0,-1,-1,1,1,7
1584990288.5424032,9,-3,0,3,-1,0,0,4
1584990288.5442178,-15,-4,-5,0,0,1,-3,2
1584990288.5442178,6,-1,6,0,0,-2,-3,-2
1584990288.5559723,0,9,1,1,3,1,0,1
1584990288.5559723,4,-6,-1,-3,-3,2,0,0
1584990288.5645537,-7,-3,0,-4,1,1,-4,-2
1584990288.5645537,0,-1,3,6,-5,1,-2,-1
1584990288.5794914,29,7,-2,1,1,2,3,5
1584990288.5794914,-22,-8,-5,-1,0,0,1,6
1584990288.5809882,-113,-17,-4,-7,-3,-4,-2,-34
1584990288.5809882,16,6,7,1,-1,-5,-6,5
1584990288.6095204,23,12,4,4,0,3,0,6
1584990288.6095204,15,-4,-2,-1,1,0,9,4
1584990288.6113613,1,-4,-3,1,2,0,-7,5
1584990288.6113613,-1,0,-4,-2,0,0,-2,-5
1584990288.6159813,-3,-5,-14,-1,-4,1,5,2
1584990288.6159813,6,2,10,3,2,1,-1,1
1584990288.624509,-6,-1,5,1,2,-4,-8,-1
1584990288.624509,13,1,-2,-3,-3,-2,5,7
1584990288.6396198,-22,-4,-6,-4,-5,-5,1,-11
1584990288.6396198,-1,-3,-1,1,-2,0,2,3
1584990288.6413379,12,3,2,0,2,2,4,5
1584990288.6413379,13,8,-1,2,1,-1,-2,5
1584990288.6620836,13,0,-3,1,-3,6,2,11
1584990288.6620836,25,-2,-1,-1,-1,-3,-3,-10
1584990288.6641035,-58,-8,-1,-4,0,0,-2,-7
1584990288.6641035,3,7,-3,0,-2,3,-3,2
1584990288.6757827,-27,3,-7,-2,-1,1,-4,-3
1584990288.6757827,7,-3,-2,-1,-1,0,0,2
1584990288.6845415,17,-3,7,-1,2,0,-2,6
1584990288.6845415,9,11,10,8,4,2,5,8
1584990288.6995156,0,1,-4,0,2,0,-1,-4
1584990288.6995156,-12,-9,-5,0,0,-2,0,-10
1584990288.7012188,4,6,4,-3,-4,0,0,2
1584990288.7012188,-2,2,-2,-1,-1,0,-3,2
1584990288.7227676,3,4,-3,-1,-4,-5,2,0
1584990288.7227676,-9,-4,-2,-9,0,2,-3,-5
1584990288.7246745,1,-3,1,-4,2,-3,0,-7
1584990288.7246745,-2,1,-3,-2,-3,-4,-2,3
1584990288.7358537,4,2,-1,0,0,1,0,11
1584990288.7358537,38,2,0,4,3,0,2,2
1584990288.7445405,-30,-1,7,1,1,7,1,-11
1584990288.7445405,-29,-11,-9,-9,-2,-12,-9,-17
1584990288.7595916,45,8,-5,-4,0,1,1,30
1584990288.7595916,-19,-7,-2,-3,1,-4,-8,-54
1584990288.761416,16,2,4,4,0,0,2,22
1584990288.761416,9,3,-3,-2,1,3,3,26
1584990288.7820868,48,7,4,4,2,2,6,8
1584990288.7820868,-74,-7,5,0,1,-3,-9,-26
1584990288.783556,-17,-11,-9,-1,2,2,1,-9
1584990288.783556,39,8,3,5,-3,5,-2,15
1584990288.7957988,9,7,-1,4,0,-7,2,8
1584990288.7957988,18,-2,0,-3,0,10,1,15
1584990288.8045251,26,3,6,2,4,16,4,-12
1584990288.8045251,-99,-14,-3,-4,-8,-19,2,-9
1584990288.8195515,65,13,1,0,-4,-27,-11,-14
1584990288.8195515,13,0,1,-2,0,6,0,19
1584990288.820914,-5,2,3,-1,4,20,6,9
1584990288.820914,58,13,6,1,-8,-6,-1,4
1584990288.8427114,-47,-17,-4,-3,-4,-33,-17,-88
1584990288.8427114,-68,-7,1,1,-2,-2,-7,14
1584990288.8444147,74,-4,-10,-6,-1,6,2,18
1584990288.8444147,-43,17,10,5,2,-6,3,-4
1584990288.855845,94,20,8,8,3,4,13,48
1584990288.855845,-46,-49,-19,-13,-4,-8,-33,-128
1584990288.8645196,40,29,6,0,0,5,6,54
1584990288.8645196,-38,-10,-1,-3,0,4,6,-17
1584990288.886986,119,9,-6,-4,-4,-4,-5,20
1584990288.886986,74,4,1,4,0,1,11,52
1584990288.8884547,-91,-16,-5,-4,-1,-3,-10,-59
1584990288.8884547,-33,-14,-7,-5,-1,-4,-5,37
1584990288.9020634,-18,29,11,8,6,16,11,-19
1584990288.9020634,-128,2,3,0,-7,-4,21,107
1584990288.9039884,-62,-3,6,8,11,78,10,-55
1584990288.9039884,-128,-59,-30,-22,-14,-32,-67,-128
1584990288.9158008,66,35,9,5,11,-5,21,94
1584990288.9158008,-4,-33,-19,-16,-28,-93,-35,3
1584990288.9319434,19,34,18,7,6,50,29,58
1584990288.9319434,-28,12,8,9,16,5,21,37
1584990288.9394271,-39,-5,-4,0,-4,34,6,4
1584990288.9394271,-43,0,2,3,26,74,9,-20
1584990288.9409246,96,2,-1,-7,-18,-101,-65,18
1584990288.9409246,4,-8,-6,-8,-2,-7,0,-78
1584990288.9621146,-29,-1,-1,0,-4,-19,-3,-27
1584990288.9621146,-20,19,5,1,-3,34,23,-21
1584990288.964108,6,-16,-7,-6,-7,4,-32,-39
1584990288.964108,31,-14,-8,-6,-3,-7,-8,67
1584990288.976139,39,-15,-5,0,1,-19,-6,-85
1584990288.976139,-122,-30,-1,5,6,-13,-35,-55
1584990288.990723,-38,0,-10,-4,-13,-47,-67,-58
1584990288.990723,-63,6,5,1,0,-3,7,-128
1584990288.9994798,105,19,-5,2,3,5,2,63
1584990288.9994798,-128,-49,-13,-11,-4,2,2,-128
1584990289.0010996,77,24,14,6,2,-33,-27,4
1584990289.0010996,127,-5,-3,5,1,6,32,-9
1584990289.0220575,-22,-2,-7,-5,-5,38,11,7
1584990289.0220575,-13,7,7,11,20,-32,8,16
1584990289.023863,127,22,7,3,-90,47,-42,60
1584990289.023863,-48,-28,-11,0,76,-3,-21,-89
1584990289.0520256,36,17,5,5,43,-41,6,-17
1584990289.0520256,-75,-2,9,-3,-60,39,2,23
1584990289.0534399,-89,2,8,6,-16,-60,9,5
1584990289.0534399,-44,-29,-24,-13,28,74,-29,-37
1584990289.0594194,55,45,18,13,20,77,39,29
1584990289.0594194,46,-61,-15,-9,-27,-86,-2,74
1584990289.0670698,-17,15,6,2,8,61,-5,-128
1584990289.0670698,127,17,4,7,-6,-7,26,42
1584990289.0967705,-61,6,5,-3,-5,-10,21,-22
1584990289.0967705,-128,2,8,4,4,-2,-52,8
1584990289.106512,64,-17,-14,-8,-8,-8,-6,-28
1584990289.106512,127,14,-3,4,-3,2,13,-21
1584990289.1077604,-71,15,3,8,3,7,35,30
1584990289.1077604,127,6,4,-1,1,11,50,92
1584990289.1106565,-128,-15,-5,-1,-2,1,-12,99
1584990289.1106565,-60,-5,0,-4,1,6,-43,6
1584990289.1181717,-2,-4,-3,5,1,-27,11,49
1584990289.1181717,43,-23,-17,-8,-10,36,-16,-90
1584990289.127041,-25,2,14,1,-7,-5,0,-29
1584990289.127041,-52,-1,6,2,-20,-2,-5,-41
1584990289.1427174,65,27,6,3,18,-34,-8,20
1584990289.1427174,-115,4,-2,-1,16,34,0,22
1584990289.1447043,17,-29,-26,-20,-18,70,-29,-29
1584990289.1447043,-14,3,12,16,46,32,8,38
1584990289.1650312,73,31,17,8,-19,-5,37,-65
1584990289.1650312,-64,-21,3,-1,9,-21,-12,13
1584990289.1665506,78,22,-5,3,-5,16,22,127
1584990289.1665506,-128,-15,-8,-9,-31,-7,-15,-79
1584990289.178191,50,25,2,0,-3,-22,-7,127
1584990289.178191,-7,-6,-3,-1,11,-5,-26,1
1584990289.1878154,72,9,-2,-2,-2,3,17,31
1584990289.1878154,-6,6,-1,1,2,-14,-2,1
1584990289.2105937,-35,-2,5,2,0,18,7,27
1584990289.2105937,-128,-14,5,-3,-1,-30,-15,-85
1584990289.2122104,39,-20,-17,-6,-14,18,-5,-13
1584990289.2122104,31,5,-10,-5,7,-38,-5,9
1584990289.22449,14,-19,-10,-4,-7,10,9,11
1584990289.22449,-19,8,12,3,-28,24,8,37
1584990289.2260108,74,-4,8,4,-9,-24,-7,-26
1584990289.2260108,-128,-22,-9,-1,32,85,2,-22
1584990289.238459,-128,-7,-8,-9,-10,4,-10,35
1584990289.238459,-8,-46,-5,-3,-12,-40,-8,-86
1584990289.2469354,-128,9,17,3,0,-8,-9,-27
1584990289.2469354,12,22,-11,0,-1,9,7,76
1584990289.269512,-52,-12,-20,-5,4,9,-4,-27
1584990289.269512,123,18,12,9,3,52,15,68
1584990289.2708888,-27,-14,23,2,-5,-37,-30,-71
1584990289.2708888,-32,5,-8,5,9,25,20,22
1584990289.284535,-18,-7,-15,-7,-19,2,-6,63
1584990289.284535,-13,-3,1,4,30,9,-1,1
1584990289.2859824,-9,-1,-1,0,1,22,-1,10
1584990289.2859824,-4,-6,-3,-5,-10,-29,-6,3
1584990289.299493,-39,-8,-8,0,-2,-7,6,0
1584990289.299493,15,4,10,3,0,-1,2,0
1584990289.3011749,-38,0,3,-1,-29,14,-2,-11
1584990289.3011749,16,-7,-15,-1,42,9,1,17
1584990289.3295176,-1,-11,-1,-1,-5,-2,1,21
1584990289.3295176,-52,-18,-1,-9,-11,-9,-27,-45
1584990289.3313391,-95,-2,0,-8,-7,-4,-2,-14
1584990289.3313391,9,7,1,9,3,-17,2,6
1584990289.344482,6,6,2,2,4,16,-1,11
1584990289.344482,16,-10,-7,-6,-1,-2,1,9
1584990289.3461368,13,2,15,9,3,3,15,63
1584990289.3461368,25,-13,-9,-4,0,-8,-23,-64
1584990289.3594766,-54,-3,-10,-9,-6,-7,-4,-13
1584990289.3594766,-58,-1,-4,0,1,18,0,-9
1584990289.3611646,7,-1,-1,1,-3,-3,0,9
1584990289.3611646,6,2,-4,2,4,0,3,-2
1584990289.3825402,2,-3,-5,-3,3,0,4,5
1584990289.3825402,-1,-3,-5,0,-1,-2,-4,-12
1584990289.3838353,-12,-7,11,1,3,-6,-13,-5
1584990289.3838353,16,8,0,0,-5,-6,-4,-2
1584990289.4045484,-25,-2,-1,0,-1,0,-2,-2
1584990289.4045484,6,-1,1,-4,1,0,1,-3
1584990289.4061866,8,-10,-12,-6,0,1,0,-3
1584990289.4061866,6,13,6,0,2,3,6,16
1584990289.4192486,15,2,5,4,2,1,6,19
1584990289.4192486,-88,-14,-6,-7,-5,-5,-7,-41
1584990289.4439821,-39,1,-4,-5,-2,-1,-3,-30
1584990289.4439821,-9,8,7,6,2,1,0,20
1584990289.445266,11,17,13,7,3,1,3,9
1584990289.445266,27,6,-5,-5,-3,2,3,9
1584990289.4480448,-43,-17,-9,-3,2,3,0,0
1584990289.4480448,-5,10,19,6,-2,2,0,-3
1584990289.464246,11,7,-5,0,2,2,0,3
1584990289.464246,3,-1,-3,-1,-2,0,3,-1
1584990289.487674,4,-3,-10,-6,-1,-1,-2,-2
1584990289.487674,4,7,7,1,-2,-1,-1,-1
1584990289.4885428,1,-3,-3,0,1,-2,0,-5
1584990289.4885428,1,-5,-4,1,2,0,-11,-3
1584990289.4897783,-1,-8,-4,-6,-3,-3,12,-4
1584990289.4897783,4,3,0,3,-3,1,-10,-1
1584990289.5033703,-3,5,3,2,-1,-3,-9,0
1584990289.5033703,-1,-2,-6,-4,-1,4,3,1
1584990289.5050068,-5,-8,-6,-3,0,2,4,4
1584990289.5050068,-6,6,7,1,0,1,1,-3
1584990289.5245428,9,8,6,5,3,2,2,3
1584990289.5245428,16,-8,-15,-5,-1,-2,-2,3
1584990289.5320241,-33,1,4,-1,1,1,-2,3
1584990289.5320241,8,-5,2,2,0,0,-2,-1
1584990289.546973,19,0,1,1,-2,-2,-4,4
1584990289.546973,-45,3,1,1,1,-1,3,10
1584990289.5485768,-17,-14,-9,-5,-4,1,-2,-25
1584990289.5485768,-10,0,-7,-5,1,-1,-2,-5
1584990289.5626945,6,10,11,2,1,-3,3,4
1584990289.5626945,4,-6,-5,-3,2,2,1,5
1584990289.56437,-3,-6,1,2,1,2,-2,-5
1584990289.56437,1,3,13,5,0,0,-1,6
1584990289.5844612,1,2,-6,-3,4,-2,4,1
1584990289.5844612,-1,-8,-8,-4,-3,-1,4,2
1584990289.5858588,1,0,1,-1,-1,3,6,-1
1584990289.5858588,-2,0,-3,-1,0,1,-9,1
1584990289.6069639,-1,3,2,2,1,-5,-10,-1
1584990289.6069639,-4,0,4,-1,-1,-2,-4,-9
1584990289.6087284,-3,-3,-1,-2,-6,-8,14,8
1584990289.6087284,2,0,0,6,3,2,1,-2
1584990289.6220355,0,0,-5,1,-2,0,-6,-3
1584990289.6220355,-3,-7,-7,-4,0,-5,-10,-3
1584990289.6237473,0,1,5,0,3,-4,-11,-5
1584990289.6237473,-1,4,0,1,-1,3,16,1
1584990289.6444964,3,-5,-4,-2,-4,-1,-11,1
1584990289.6444964,2,-5,3,4,-4,-1,-9,-1
1584990289.6462212,-3,2,-3,1,1,-1,5,3
1584990289.6462212,-1,2,-6,-1,-1,3,9,1
1584990289.658589,-10,-1,-4,-3,-3,-1,-2,-4
1584990289.658589,-4,9,14,2,2,-1,3,1
1584990289.6669917,21,-12,-6,-3,-1,-3,-10,-11
1584990289.6669917,-1,2,-1,-3,0,-1,2,7
1584990289.6820712,-6,-3,-3,-6,1,-1,-2,6
1584990289.6820712,-4,1,6,1,4,0,7,-13
1584990289.6835878,-1,2,5,4,3,0,-5,5
1584990289.6835878,-1,0,-8,-2,-4,-1,-14,-8
1584990289.7042637,-1,-1,-3,-4,0,4,6,12
1584990289.7042637,-7,-7,-5,1,1,-6,-11,-3
1584990289.720152,-2,-4,-8,-3,-3,-1,3,-9
1584990289.720152,2,4,4,0,3,0,-1,1
1584990289.721046,0,3,9,5,-2,1,-24,2
1584990289.721046,-1,-8,-6,-7,-6,-6,7,3
1584990289.727284,-1,-3,-2,0,2,5,13,2
1584990289.727284,0,3,-5,-1,-1,0,35,5
1584990289.7420363,-5,0,1,1,-2,-4,-21,-7
1584990289.7420363,1,-2,0,0,0,-1,4,0
1584990289.7439125,-1,3,-1,-1,2,3,11,3
1584990289.7439125,2,-2,-6,-1,1,3,2,-1
1584990289.7644567,-3,-2,1,2,1,-3,1,0
1584990289.7644567,2,1,3,-1,3,-3,-3,-1
1584990289.766105,4,6,-1,-1,1,1,3,-1
1584990289.766105,2,-3,-3,-3,0,-2,1,1
1584990289.7781115,2,-4,-6,-3,-4,0,-3,-1
1584990289.7781115,-2,2,-4,-1,-1,-4,1,-2
1584990289.7869658,0,-4,-6,-3,0,0,-1,-4
1584990289.7869658,-1,1,1,3,2,2,2,0
1584990289.8019862,-5,1,0,0,0,0,-6,-2
1584990289.8019862,-2,0,5,0,-3,3,-3,0
1584990289.803808,2,4,5,0,1,-5,3,-1
1584990289.803808,0,-2,-8,1,1,-1,-1,0
1584990289.824553,0,-2,-10,-4,-3,-2,-3,1
1584990289.824553,-2,4,9,2,-4,1,0,-1
1584990289.8264315,3,-2,7,0,0,0,1,-2
1584990289.8264315,0,-2,-8,-2,-1,0,2,-1
1584990289.8383777,-1,0,5,2,2,-1,-5,0
1584990289.8383777,-3,-3,-5,3,-1,-1,0,1
1584990289.8469725,-1,0,-6,-4,-2,1,-5,-3
1584990289.8469725,1,-3,-4,-6,-4,-4,-3,0
1584990289.862009,0,-5,5,-1,-1,-2,2,-1
1584990289.862009,-2,2,-2,3,-2,1,1,-1
1584990289.8641233,0,-5,-5,-2,-2,3,0,-5
1584990289.8641233,1,1,1,1,-1,-1,8,1
1584990289.884916,-1,-1,0,1,1,0,-1,0
1584990289.884916,-3,5,-1,-4,-2,1,-5,-4
1584990289.8863473,-2,-8,-5,-4,-2,-3,1,1
1584990289.8863473,1,8,11,4,0,-3,-1,-1
1584990289.898081,-1,1,-3,-8,-1,-2,2,-2
1584990289.898081,-3,-8,-9,-2,-1,-1,-1,-4
1584990289.9069843,-2,1,9,2,0,2,3,2
1584990289.9069843,-1,-1,-8,0,-1,-3,-1,-1
1584990289.9219825,2,-1,0,3,1,-1,0,0
1584990289.9219825,-1,-4,-7,-3,1,-1,-3,3
1584990289.9237182,-5,-3,-4,-2,-2,-1,-2,-3
1584990289.9237182,1,-5,0,-3,-1,-1,0,-3
1584990289.944465,2,8,7,0,1,2,-1,0
1584990289.944465,5,1,8,3,-2,-3,1,1
1584990289.9461215,1,-5,-5,-3,-2,1,1,-1
1584990289.9461215,0,4,2,-4,-1,-2,-1,-2
1584990289.9581125,-3,-7,-7,1,-2,-2,-1,-4
1584990289.9581125,-2,-7,-1,-3,-1,0,-1,1
1584990289.9670384,-4,-4,-4,-5,0,-2,1,1
1584990289.9670384,3,6,6,1,2,0,-2,-1
1584990289.982091,-1,-4,-6,-2,-1,1,-1,1
1584990289.982091,0,-5,-1,0,-2,-1,-1,1
1584990289.9836395,1,2,7,1,0,-2,-3,0
1584990289.9836395,-1,11,-4,1,0,-1,0,-1
1584990290.0045285,0,0,-1,-1,0,-4,0,2
1584990290.0045285,0,-4,6,-1,4,1,-1,-2
1584990290.0063071,-1,1,-2,2,-1,0,-2,-3
1584990290.0063071,-4,-4,-8,-4,0,1,-1,-2
1584990290.018071,-1,-6,-4,-3,-1,-1,-2,-3
1584990290.018071,1,-3,2,-1,0,2,-1,-1
1584990290.0268807,1,-1,-4,-1,0,3,-1,0
1584990290.0268807,-2,-3,1,-1,-3,-1,2,0
1584990290.042052,-1,10,7,-1,-1,2,2,2
1584990290.042052,-1,-9,-6,-2,-3,-3,0,-2
1584990290.0440297,0,-5,1,2,-2,-2,0,2
1584990290.0440297,-3,-1,-4,-3,0,1,0,0
1584990290.064509,-5,-4,-4,-1,0,0,1,-1
1584990290.064509,-1,0,-12,-2,0,0,1,-2
1584990290.06642,2,7,23,3,2,-1,0,-3
1584990290.06642,2,8,1,2,-3,2,0,-4
1584990290.0781653,-4,-6,-11,0,-4,2,-3,-3
1584990290.0781653,-1,-7,-10,-4,-3,-2,-3,-2
1584990290.0869625,1,7,1,1,6,-2,-1,2
1584990290.0869625,-2,2,0,-2,0,-2,-1,-1
1584990290.1020787,0,-7,-6,-3,2,-1,1,-6
1584990290.1020787,-1,1,4,0,-1,1,-1,-6
1584990290.1040258,0,0,8,3,-1,0,2,0
1584990290.1040258,1,10,1,4,1,2,0,0
1584990290.1245217,-1,-7,0,-1,1,-1,0,-1
1584990290.1245217,-4,-3,-3,-3,-4,-2,1,-1
1584990290.1262736,-3,-2,-10,-5,-4,2,-1,1
1584990290.1262736,-2,3,-2,1,-4,-3,-3,0
1584990290.1469688,-3,0,11,-1,0,-2,-2,-2
1584990290.1469688,-1,-10,-12,-3,-3,-1,0,-2
1584990290.1489441,-1,8,8,2,0,2,2,-2
1584990290.1489441,1,10,9,3,-4,3,-2,-1
1584990290.162508,-1,-8,-14,-4,3,1,2,0
1584990290.162508,0,3,5,-3,0,-1,-1,-1
1584990290.1641982,-1,0,3,0,-4,-2,-1,0
1584990290.1641982,-2,4,-3,-1,0,-3,-2,3
1584990290.18426,0,-6,-6,0,-5,-1,0,-1
1584990290.18426,1,-5,-2,-6,2,-4,-1,3
1584990290.1906562,-2,3,3,0,0,0,0,-1
1584990290.1906562,2,8,2,5,3,-4,-1,-4
1584990290.2069786,1,-4,-4,-5,1,0,-1,-1
1584990290.2069786,-3,-4,-4,-4,-6,0,-2,-1
1584990290.2087584,-2,-5,-5,-3,0,-1,-1,-1
1584990290.2087584,1,6,2,-2,-2,0,0,4
1584990290.221953,1,6,1,-2,3,1,-1,-1
1584990290.221953,3,-11,-5,-5,-2,-1,-3,0
1584990290.2237718,6,4,7,3,1,2,3,5
1584990290.2237718,3,1,-1,1,-1,1,-4,0
1584990290.244468,-36,-8,-5,-2,2,-2,-3,-8
1584990290.244468,5,-3,-1,-2,-1,0,-2,0
1584990290.2461965,5,0,-1,1,-2,0,-2,-1
1584990290.2461965,6,5,-5,-3,-1,0,-1,-1
1584990290.2744567,3,-4,-11,1,-2,-2,-2,-3
1584990290.2744567,1,9,15,4,2,-1,-1,2
1584990290.2759032,-2,0,-8,-4,-1,-2,1,0
1584990290.2759032,-5,-4,-10,-3,-3,-2,1,0
1584990290.2895465,-1,-6,-4,-3,-3,-1,4,3
1584990290.2895465,-1,-7,9,2,-4,2,-1,1
1584990290.2912564,12,13,9,-1,0,2,3,1
1584990290.2912564,-18,-8,-7,-3,-3,0,-2,3
1584990290.304305,-11,0,-3,2,-1,-3,1,-5
1584990290.304305,1,-3,-1,-1,3,0,1,-5
1584990290.31812,3,-5,-1,-5,2,0,-2,6
1584990290.31812,4,-2,-3,-3,-1,-5,1,3
1584990290.3269596,0,1,2,0,-3,2,1,4
1584990290.3269596,1,1,6,5,2,-2,-1,-2
1584990290.3285909,0,0,6,1,1,0,-3,1
1584990290.3285909,-5,0,-6,-2,-1,-2,-1,2
1584990290.34127,-5,-9,-7,-4,-1,-2,3,0
1584990290.34127,0,-4,-1,2,0,-3,-3,0
1584990290.348089,8,2,13,5,0,2,0,-1
1584990290.348089,4,6,-1,-3,0,1,2,3
1584990290.3644645,10,-5,-6,-1,-2,1,1,4
1584990290.3644645,0,4,-2,0,2,0,2,4
1584990290.366166,-13,-7,-2,-1,0,-9,-3,-13
1584990290.366166,-17,-4,-2,1,-1,0,-3,0
1584990290.3869548,11,6,-2,-2,0,7,3,5
1584990290.3869548,19,2,-2,-2,-2,4,4,10
1584990290.3884318,-7,-8,-1,-3,-2,-9,-7,-16
1584990290.3884318,4,8,1,2,1,3,0,-2
1584990290.4101183,12,-1,-1,-2,-3,1,1,3
1584990290.4101183,2,-3,-2,1,0,-2,0,3
1584990290.4117873,-7,2,3,4,3,3,0,-2
1584990290.4117873,-2,0,-5,-1,-3,-4,-3,1
1584990290.4244561,3,1,4,1,-1,-1,2,5
1584990290.4244561,-5,-8,1,-3,-2,-4,-6,-8
1584990290.4261556,0,-5,-5,-1,-4,3,2,4
1584990290.4261556,-9,-1,-3,0,-2,1,-3,-5
1584990290.4469635,-1,-1,1,-1,-4,-4,6,0
1584990290.4469635,-4,-3,0,1,0,-2,-13,2
1584990290.4487946,8,-1,0,4,1,-2,-2,-1
1584990290.4487946,2,-2,2,0,-1,1,5,2
1584990290.4607072,5,3,0,0,-3,1,-4,1
1584990290.4607072,-6,1,0,0,2,0,-1,2
1584990290.4694874,-13,-3,-4,-2,-1,3,-1,0
1584990290.4694874,30,6,-2,-1,0,-2,-2,0
1584990290.4844368,-9,-6,3,2,-1,-2,3,-5
1584990290.4844368,17,7,8,-1,0,-2,-3,8
1584990290.4859138,-33,-16,-9,-4,2,-3,-4,-17
1584990290.4859138,13,11,-5,0,2,3,5,15
1584990290.5069308,10,-1,-4,-2,-1,-3,-3,9
1584990290.5069308,6,8,16,0,0,3,2,-6
1584990290.5085435,-8,-16,-17,-5,-4,-2,-8,-43
1584990290.5085435,45,12,5,2,3,-1,6,36
1584990290.5300848,0,4,-2,-4,-3,0,6,43
1584990290.5300848,-3,-12,2,-5,0,6,-6,-26
1584990290.5317378,-23,1,2,-4,0,0,-5,-22
1584990290.5317378,11,1,-3,0,-5,-24,-1,-40
1584990290.5519524,15,8,4,3,2,3,1,24
1584990290.5519524,-71,-29,-9,-7,-2,18,-7,-40
1584990290.5533502,-23,-13,-14,-6,-6,-33,-13,-28
1584990290.5533502,25,15,3,2,3,19,7,44
1584990290.566888,-58,17,33,9,0,3,3,-33
1584990290.566888,29,-24,-17,-5,-4,-4,-10,3
1584990290.5682933,41,-2,-12,-3,1,7,-5,-4
1584990290.5682933,-107,-4,-6,-4,5,58,2,-41
1584990290.5805867,-16,8,6,4,2,19,-1,15
1584990290.5805867,11,-10,-6,-6,-13,-30,-10,-29
1584990290.5895126,30,23,2,6,2,12,18,55
1584990290.5895126,-75,-20,-10,-7,-7,-9,-19,-122
1584990290.6045208,-40,7,5,2,8,19,-7,45
1584990290.6045208,65,21,16,3,-1,0,12,7
1584990290.606411,-128,-47,-15,-12,-10,-3,-19,-128
1584990290.606411,-36,26,2,8,3,6,14,76
1584990290.6269445,127,-46,-20,-20,-19,-56,-33,116
1584990290.6269445,-128,22,14,6,18,69,20,-16
1584990290.6284907,75,53,20,17,12,-5,15,117
1584990290.6284907,30,-22,-6,-2,-9,-20,0,-2
1584990290.6505554,7,4,-8,-6,-4,30,4,19
1584990290.6505554,-27,-11,-9,-8,-6,-27,14,-29
1584990290.65609,13,6,2,-4,-3,74,-1,43
1584990290.65609,-128,-61,-22,-13,-28,-26,-72,-25
1584990290.6644468,42,53,20,23,38,44,5,114
1584990290.6644468,-5,-16,-11,-10,-52,-100,-15,120
1584990290.666124,-75,-8,-4,2,34,89,-7,-93
1584990290.666124,-36,6,7,0,-20,-32,50,31
1584990290.686943,-127,-15,0,-2,11,-29,-67,-10
1584990290.686943,-47,-20,-15,-13,-50,-30,-33,-128
1584990290.6883833,-128,5,20,20,72,33,16,98
1584990290.6883833,48,-2,-13,-13,-37,12,-17,-116
1584990290.7085762,-53,25,20,28,25,-65,41,10
1584990290.7085762,127,-3,-7,-16,1,99,36,127
1584990290.7169452,-47,-12,-3,-24,-33,-21,-25,16
1584990290.7169452,44,31,15,21,22,3,18,127
1584990290.7244413,-12,-66,-40,-20,-40,-49,-51,-128
1584990290.7244413,10,31,8,-14,22,5,26,-25
1584990290.7261424,-128,2,9,25,32,39,42,95
1584990290.7261424,-76,2,3,6,-7,-41,-15,16
1584990290.7558575,-37,10,1,-8,-14,5,13,74
1584990290.7558575,127,-8,-19,-20,-52,-43,2,-12
1584990290.7576356,127,-29,-11,4,39,65,-3,-128
1584990290.7576356,-59,-12,2,-1,-10,-24,2,54
1584990290.7696521,-107,24,17,8,-37,10,23,26
1584990290.7696521,89,-27,-7,4,40,62,-21,-40
1584990290.771472,-128,30,25,12,19,89,33,44
1584990290.771472,109,26,-1,0,-2,-36,-16,75
1584990290.7844303,127,-2,-13,-10,-13,-21,-9,-80
1584990290.7844303,71,-5,-1,-4,-5,10,28,-27
1584990290.785866,-67,2,1,-2,-3,-31,-20,-94
1584990290.785866,127,23,0,9,6,21,17,127
1584990290.807418,-95,-9,5,1,3,-7,-29,-113
1584990290.807418,127,-4,-20,-11,-7,-6,11,54
1584990290.809369,-128,9,2,-2,1,2,10,109
1584990290.809369,61,14,19,11,6,-6,-27,-4
1584990290.8206615,23,9,4,-3,-26,16,9,3
1584990290.8206615,127,15,-4,2,54,3,23,-12
1584990290.8294768,-128,-29,-6,-3,-17,12,-19,-74
1584990290.8294768,127,-1,-3,0,-56,-27,26,127
1584990290.8444734,11,10,-3,-5,51,8,-23,18
1584990290.8444734,-128,-28,-6,-3,-30,-86,-16,-55
1584990290.8462567,-29,-12,2,2,19,103,-22,48
1584990290.8462567,43,14,-6,-2,-37,-17,21,17
1584990290.8669484,56,-5,-6,3,46,-55,-47,3
1584990290.8669484,-68,-6,6,3,-19,-30,-7,-43
1584990290.868375,-18,30,11,5,-17,-22,7,74
1584990290.868375,91,-19,-5,1,8,-20,-16,-128
1584990290.8806713,42,4,-8,-7,-3,59,15,91
1584990290.8806713,-128,-4,4,-5,20,-80,-18,-69
1584990290.8957307,127,44,8,9,21,16,19,69
1584990290.8957307,-75,-27,-23,-10,-12,-18,-26,-97
1584990290.9038682,112,31,11,8,1,-11,-16,125
1584990290.9038682,79,-4,-3,0,-11,23,0,-17
1584990290.9180942,-118,-25,-7,-2,-1,-5,9,-37
1584990290.9180942,113,22,-4,1,-5,-3,24,72
1584990290.9269261,10,-16,0,-5,-7,-8,-10,-73
1584990290.9269261,-12,2,0,4,8,-9,6,6
1584990290.9287271,77,-1,-8,-5,31,-11,1,10
1584990290.9287271,-59,-16,-6,-5,22,3,2,-8
1584990290.9405873,-26,9,3,7,-3,5,37,35
1584990290.9405873,86,4,-7,-7,-7,-2,24,57
1584990290.94946,35,5,3,-1,-27,48,-6,-37
1584990290.94946,-128,-30,-10,12,25,-19,-44,-86
1584990290.9643614,127,-26,-17,-24,-32,-17,19,-13
1584990290.9643614,-128,21,18,12,37,91,11,38
1584990290.9658782,127,-15,-12,-9,-11,-13,-10,-30
1584990290.9658782,12,3,3,1,-6,-1,1,-43
1584990290.9944386,14,11,2,-1,-8,7,16,-16
1584990290.9944386,-49,-1,6,4,5,4,-7,25
1584990290.9959006,-76,-15,-4,-2,-3,2,25,-43
1584990290.9959006,23,11,-4,2,1,13,-22,52
1584990291.009455,44,5,7,2,2,-22,-3,-2
1584990291.009455,-54,8,15,11,5,18,10,-8
1584990291.0112002,124,-1,-12,-6,-2,-20,-36,5
1584990291.0112002,-24,7,3,2,8,7,9,-12
1584990291.0323436,14,-1,-3,-2,-6,2,8,24
1584990291.0323436,-30,16,10,1,1,2,-12,-24
1584990291.0381486,16,2,3,1,1,25,7,-11
1584990291.0381486,34,0,-6,5,47,24,8,35
1584990291.0469615,4,-5,-3,-6,-8,-15,10,15
1584990291.0469615,-1,4,8,3,-6,-6,1,27
1584990291.0486574,110,2,-9,-3,-8,-5,-6,-30
1584990291.0486574,-84,11,4,1,-1,10,12,-2
1584990291.0695033,4,5,6,3,-3,-5,-13,17
1584990291.0695033,65,-3,-2,4,-2,-4,6,3
1584990291.0713515,9,-8,-13,-12,-8,13,-21,-23
1584990291.0713515,-52,7,1,0,-3,-8,9,25
1584990291.0851417,-29,-7,-3,-4,-3,-30,3,9
1584990291.0851417,21,1,-7,-3,4,10,-20,24
1584990291.0866842,-20,-3,3,3,-9,-7,-6,-37
1584990291.0866842,10,26,22,9,15,22,16,-10
1584990291.1073892,-46,-21,-14,-6,-5,-6,-1,-14
1584990291.1073892,29,0,-4,-1,2,-1,-13,12
1584990291.109354,0,-3,-4,-2,-4,1,2,-6
1584990291.109354,-1,2,6,1,-3,-1,3,0
1584990291.1294327,0,-4,-10,-5,-1,-1,1,1
1584990291.1294327,-4,-7,4,-4,-7,-4,-8,0
1584990291.1311605,6,12,18,5,1,4,6,3
1584990291.1311605,-37,3,-3,2,9,2,-1,-4
1584990291.151885,44,3,-8,-2,-2,-2,-13,8
1584990291.151885,39,-9,-6,-3,-6,-7,-5,-8
1584990291.153503,-9,-3,-8,-7,-3,0,1,4
1584990291.153503,10,17,15,4,-2,2,5,2
1584990291.1669698,-5,1,1,1,5,2,-7,-10
1584990291.1669698,17,-18,-6,-4,1,1,6,8
1584990291.168652,-13,26,16,7,3,2,5,-8
1584990291.168652,18,8,-4,0,-2,-1,-5,8
1584990291.189975,6,-7,-13,-2,-1,-1,3,5
1584990291.189975,41,-13,-3,-5,-4,-10,-11,-3
1584990291.1929054,-3,8,2,5,-1,0,4,4
1584990291.1929054,-9,-1,-8,-4,-2,0,-2,5
1584990291.2119894,-4,-5,-1,6,-1,2,1,4
1584990291.2119894,-1,2,9,1,1,0,4,1
1584990291.213606,16,-2,-5,-1,-4,-1,-3,2
1584990291.213606,-23,-3,-7,-1,-2,-1,-3,1
1584990291.2269876,12,-4,-5,2,0,3,4,-1
1584990291.2269876,6,7,15,5,0,1,10,1
1584990291.2283223,7,-1,1,0,1,0,-11,3
1584990291.2283223,3,-5,-10,-4,-2,-2,4,-3
1584990291.2732835,1,1,-4,1,2,-6,7,-2
1584990291.2732835,5,1,6,3,4,-3,-32,-3
1584990291.2752032,-27,-4,5,-3,-1,-4,15,-3
1584990291.2752032,7,2,-5,1,-2,1,-9,-4
1584990291.2767699,-34,-9,-2,-1,-1,3,5,-2
1584990291.2767699,2,8,6,3,2,8,21,-2
1584990291.2794366,60,-4,-1,-4,-1,-1,-7,6
1584990291.2794366,-20,2,6,-2,-3,-3,-4,-4
1584990291.2869232,-22,-1,-7,1,-5,1,-9,-9
1584990291.2869232,-8,-4,0,-3,0,0,4,0
1584990291.2885447,-2,4,2,4,2,4,15,3
1584990291.2885447,1,-1,3,0,5,0,-12,1
1584990291.309466,9,2,0,-2,0,-3,-6,0
1584990291.309466,-5,-8,-5,-3,-4,-2,-1,0
1584990291.311232,5,0,-2,0,-5,-3,4,-4
1584990291.311232,6,1,2,-2,-3,2,0,2
1584990291.3239994,-1,1,1,2,1,3,5,3
1584990291.3239994,4,3,-3,-1,0,-3,-8,0
1584990291.3306646,-2,-8,-5,-4,-5,-1,2,-4
1584990291.3306646,-4,3,-1,-1,1,-1,-6,2
1584990291.3469265,2,8,7,1,1,-1,-10,-1
1584990291.3469265,-5,-2,2,-3,-1,-5,6,-1
1584990291.348584,-1,0,-2,-4,1,3,0,-2
1584990291.348584,-5,-3,6,0,-3,-5,-20,-6
1584990291.369498,-3,-12,-12,-4,-2,2,23,7
1584990291.369498,8,0,-5,-1,-4,3,-2,4
1584990291.3712947,2,8,4,2,1,-2,2,1
1584990291.3712947,-3,-5,-4,-4,-1,0,0,-8
1584990291.383573,2,0,-5,-2,-2,2,16,0
1584990291.383573,0,-2,-4,1,0,-3,-5,8
1584990291.3919246,1,-6,0,2,3,-3,5,-4
1584990291.3919246,3,5,2,1,3,5,-7,-5
1584990291.406922,-4,-5,-5,-1,-1,2,18,3
1584990291.406922,0,2,-3,-1,-1,-8,-28,-1
1584990291.4086032,-1,0,-3,0,3,0,-32,-6
1584990291.4086032,5,3,3,1,2,1,60,-5
1584990291.4294367,-5,1,1,-6,-9,-6,-90,-22
1584990291.4294367,2,-3,-5,1,4,6,27,-4
1584990291.4312322,-2,-6,1,0,-5,-7,-31,6
1584990291.4312322,4,3,1,0,-5,-7,-70,-4
1584990291.443104,-2,-3,-6,0,-7,1,36,-1
1584990291.443104,-2,-5,-3,-3,1,3,9,0
1584990291.4519422,-1,3,4,3,4,5,16,1
1584990291.4519422,3,-5,-3,4,0,3,10,4
1584990291.466938,1,2,3,2,1,1,4,0
1584990291.466938,-1,-4,1,0,-2,-3,4,0
1584990291.4683716,-2,-1,-3,-2,-1,1,-7,-1
1584990291.4683716,-2,0,-1,0,0,-4,3,-2
1584990291.489502,2,-2,2,2,-2,-2,-9,-3
1584990291.489502,0,-4,3,1,1,1,0,-3
1584990291.4913394,0,5,3,0,1,-1,-4,-1
1584990291.4913394,-1,0,-3,0,-3,-2,-1,0
1584990291.5031605,-4,-2,-3,-3,-2,-1,0,0
1584990291.5031605,-1,-5,-3,-2,0,0,-1,0
1584990291.5119238,-2,5,4,-2,-2,1,0,1
1584990291.5119238,-1,-2,-4,1,0,2,12,1
1584990291.5269263,-3,0,0,0,1,2,4,-2
1584990291.5269263,-5,-1,0,-1,-3,-4,-18,-3
1584990291.5286562,1,0,1,0,-2,0,3,-4
1584990291.5286562,-2,2,-4,-1,0,6,-7,2
1584990291.5494668,-1,-5,4,4,0,-3,-2,-2
1584990291.5494668,1,7,3,4,-1,-2,18,0
1584990291.5508685,3,-3,-10,-2,-3,-2,-9,1
1584990291.5508685,0,1,5,3,4,1,2,0
1584990291.5630798,5,11,15,2,0,-4,1,-2
1584990291.5630798,-2,2,1,-2,2,1,-1,5
1584990291.5718884,-1,-7,-8,-3,1,-1,-4,-11
1584990291.5718884,-1,-7,-7,-3,-1,-1,-2,3
1584990291.5869856,-2,-4,-4,-5,-3,-1,-3,-1
1584990291.5869856,1,-3,-2,1,-1,1,-3,0
1584990291.5883327,0,7,3,1,-1,-1,-4,2
1584990291.5883327,0,0,2,0,-3,-1,0,1
1584990291.6101184,2,3,-6,-4,-3,0,2,-2
1584990291.6101184,0,7,3,3,1,1,-8,2
1584990291.612319,0,-4,-7,-1,1,-1,2,0
1584990291.612319,-3,1,-5,-3,-1,-3,-5,-5
1584990291.6230743,-3,-1,0,-2,-2,-2,-5,-4
1584990291.6230743,-4,-1,-3,-2,0,-2,1,2
1584990291.6319203,-1,-4,0,4,1,4,-5,0
1584990291.6319203,1,15,11,6,1,-1,2,0
1584990291.6469374,-1,-4,-6,-5,-1,-4,-7,-1
1584990291.6469374,-1,0,-3,-3,-2,0,2,0
1584990291.6487079,-2,-5,0,-7,-2,-1,3,2
1584990291.6487079,-2,1,-7,-2,-4,-2,-1,0
1584990291.6695364,1,-5,3,2,1,-2,1,1
1584990291.6695364,3,15,19,6,0,0,-2,1
1584990291.671397,-1,-6,-7,-1,0,-3,0,-5
1584990291.671397,-1,0,-9,0,-1,0,2,-3
1584990291.68316,-3,-5,-2,-2,0,-2,-5,-2
1584990291.68316,-5,2,-2,1,0,1,1,1
1584990291.6925898,0,-4,-1,-2,0,1,2,2
1584990291.6925898,1,6,-1,1,-2,2,-1,0
1584990291.706988,0,0,6,-1,0,1,-1,-2
1584990291.706988,0,-5,-1,-2,0,4,-1,0
1584990291.708636,1,0,-2,-3,-2,1,-1,-3
1584990291.708636,2,1,-2,1,-1,0,0,1
1584990291.730105,-1,2,0,-1,2,0,3,3
1584990291.730105,-2,2,2,0,2,-1,-3,-1
1584990291.7317924,0,-6,-4,-3,2,-1,6,0
1584990291.7317924,-4,3,-4,-4,-2,0,1,0
1584990291.7431087,-2,-15,-10,-3,-1,-2,-2,-1
1584990291.7431087,-2,4,11,5,1,1,-1,-1
1584990291.751975,3,8,11,5,0,0,2,-1
1584990291.751975,0,-4,-12,1,0,-2,1,-1
1584990291.7669094,-5,-10,-11,-5,-2,0,2,1
1584990291.7669094,-4,-6,-3,-4,-2,4,3,-1
1584990291.7682672,4,9,11,2,1,1,4,3
1584990291.7682672,-2,-2,-3,3,2,-4,-11,-3
1584990291.7895272,-2,-3,-2,1,1,1,-5,-1
1584990291.7895272,1,-4,-3,0,0,-2,1,0
1584990291.7914283,0,-1,-1,-2,-1,0,1,0
1584990291.7914283,-1,0,-2,0,-4,-2,0,-1
1584990291.8031306,0,-8,-3,-2,-2,-1,0,-2
1584990291.8031306,2,-4,-1,-3,-1,0,2,-1
1584990291.8119595,-1,6,12,2,2,-3,0,0
1584990291.8119595,0,7,-3,-2,-2,-2,-6,2
1584990291.8269012,-2,4,4,-2,1,3,0,0
1584990291.8269012,0,-7,-2,-1,2,-2,1,-3
1584990291.828679,-3,-3,-4,-2,-1,3,1,-4
1584990291.828679,-2,-4,-6,-1,-1,-2,-3,-3
1584990291.8493953,-1,-1,0,2,1,-1,-2,-1
1584990291.8493953,2,5,7,-1,-3,-4,-4,-1
1584990291.8507931,-2,-3,-2,-1,-1,1,-3,0
1584990291.8507931,1,8,0,1,-2,-2,0,2
1584990291.8630512,-3,3,2,-2,1,-1,3,1
1584990291.8630512,-1,-13,-13,-4,0,0,-1,-2
1584990291.8719401,4,17,22,4,2,-2,1,3
1584990291.8719401,-3,-7,-4,-2,0,-2,-1,0
1584990291.8868964,-1,0,-6,-2,-1,3,-4,2
1584990291.8868964,-6,-3,-4,0,0,2,-1,-1
1584990291.8883562,-3,-2,-2,0,-4,0,-1,-1
1584990291.8883562,3,-1,0,1,1,1,0,2
1584990291.9094064,-1,-1,1,-1,2,0,0,1
1584990291.9094064,-1,-2,-1,-1,-1,-4,-4,2
1584990291.9111981,-1,1,1,1,-1,0,0,-2
1584990291.9111981,-1,3,-4,-3,0,0,-1,-3
1584990291.923173,-1,-5,-3,-1,2,-2,0,4
1584990291.923173,0,-6,-1,2,-2,-1,-1,-2
1584990291.9394329,0,14,13,3,1,4,0,3
1584990291.9394329,2,-3,-4,2,0,1,0,0
1584990291.9469125,0,-2,-1,-3,1,0,-1,-2
1584990291.9469125,-1,-10,-13,-2,-3,0,-2,-1
1584990291.9485712,3,10,12,4,0,0,-1,0
1584990291.9485712,4,2,-1,0,0,-1,-2,0
1584990291.9699848,7,-5,-3,-5,0,-1,0,2
1584990291.9699848,-12,-8,-8,-7,0,-2,-3,-4
1584990291.9717443,6,-1,-1,-4,-1,0,-4,-3
1584990291.9717443,2,1,3,1,-1,-1,0,-7
1584990291.9830415,3,-2,-6,-3,0,0,-1,2
1584990291.9830415,0,3,3,2,0,0,-1,-1
1584990291.991969,5,5,6,0,-1,-3,1,2
1584990291.991969,-3,-4,-7,-3,-3,-1,0,-1
1584990292.006908,0,-2,-2,-3,0,-3,1,0
1584990292.006908,1,-1,2,-1,-3,-3,-3,0
1584990292.008614,2,0,2,5,-1,-1,0,-1
1584990292.008614,5,4,1,0,-1,0,4,3
1584990292.0294158,-11,-6,-1,-3,-1,1,0,-1
1584990292.0294158,-22,-4,-3,-2,-3,1,-5,-10
1584990292.0311806,-1,3,1,0,0,0,1,0
1584990292.0311806,6,0,-5,0,0,-2,3,3
1584990292.0518963,12,6,6,4,0,2,1,4
1584990292.0518963,-11,-5,-4,-2,0,1,-1,1
1584990292.0533254,-7,0,1,0,-4,-4,-3,-3
1584990292.0533254,11,-7,-5,-4,-1,-1,-4,-14
1584990292.0669127,-9,-2,-1,2,-2,1,1,1
1584990292.0669127,10,-1,4,-1,-1,-1,1,6
1584990292.068288,-2,3,1,2,1,2,0,-5
1584990292.068288,-1,-2,0,2,1,-1,3,2
1584990292.089466,6,-4,-7,-1,-3,0,0,14
1584990292.089466,17,1,8,-2,1,2,-1,-5
1584990292.091333,-80,-8,-7,-3,-1,-2,-2,9
1584990292.091333,23,5,-4,0,3,-3,-1,-2
1584990292.1118658,1,-6,-4,-5,-2,-11,-3,-4
1584990292.1118658,2,-10,-1,-2,-2,-2,-2,-11
1584990292.1136475,17,4,3,3,-3,1,2,11
1584990292.1136475,-9,1,-1,-1,3,1,1,0
1584990292.126927,2,4,1,-5,-1,1,-2,8
1584990292.126927,50,10,5,5,2,2,6,33
1584990292.128659,-43,2,2,3,-1,-2,-1,-20
1584990292.128659,-24,-6,-7,-4,-7,-10,-8,-27
1584990292.1494808,54,-13,-6,-6,-1,18,-4,-55
1584990292.1494808,-27,-4,-4,-5,-5,-31,-7,33
1584990292.1508706,32,10,-1,4,3,-17,8,21
1584990292.1508706,12,8,9,3,2,7,2,22
1584990292.1720219,30,13,7,2,0,-9,2,6
1584990292.1720219,66,15,3,4,4,26,8,38
1584990292.1742158,-93,-26,-6,-5,-12,-19,-9,-23
1584990292.1742158,-13,-2,-8,-3,-4,-2,-5,-42
1584990292.1869547,12,9,3,0,1,-5,-3,15
1584990292.1869547,34,14,8,4,1,10,9,27
1584990292.1883008,-14,3,-3,2,0,49,1,-7
1584990292.1883008,-27,-5,5,-1,-8,-28,-3,-28
1584990292.2169366,-51,-21,-13,-5,1,17,-14,-68
1584990292.2169366,104,30,4,5,4,26,22,46
1584990292.2182975,-128,-42,-9,-7,-8,-66,-38,-74
1584990292.2182975,-43,20,10,6,6,-4,25,115
1584990292.2319055,127,-19,-20,-9,-7,-9,-12,-79
1584990292.2319055,-85,-3,4,1,5,48,21,41
1584990292.2335901,-37,20,14,8,8,9,20,31
1584990292.2335901,-83,-5,-5,1,4,-48,11,33
1584990292.245646,70,12,11,0,-3,5,12,5
1584990292.245646,-11,17,-1,-10,-5,18,17,-31
1584990292.2543728,127,7,-2,8,5,-26,10,18
1584990292.2543728,13,27,9,8,-3,56,8,-1
1584990292.2694776,127,-38,-20,-3,1,-18,-16,-52
1584990292.2694776,78,37,27,0,6,0,12,127
1584990292.2714999,-128,-54,-13,-3,8,95,68,-11
1584990292.2714999,127,34,3,3,4,-75,-80,100
1584990292.291951,40,3,16,5,-82,-128,15,-46
1584990292.291951,-6,12,4,8,101,86,1,1
1584990292.2941706,29,-8,-16,-12,-28,-79,28,-63
1584990292.2941706,-90,33,19,0,-28,-38,-71,-11
1584990292.305632,127,28,8,4,20,48,8,102
1584990292.305632,55,26,1,2,-51,-17,2,-62
1584990292.3144019,-128,-33,-9,-5,30,-63,29,127
1584990292.3144019,103,-12,-11,-1,-11,-26,-29,-11
1584990292.3300805,22,22,17,11,10,85,14,59
1584990292.3300805,100,-6,-14,-11,-8,-5,5,3
1584990292.3317504,-113,-29,-3,-3,0,-1,3,-123
1584990292.3317504,-25,17,6,8,4,2,24,17
1584990292.3519053,-128,-3,-1,-3,-5,-6,-10,-18
1584990292.3519053,98,16,-3,2,4,7,40,127
1584990292.3533416,-128,-15,3,-1,1,0,-12,-106
1584990292.3533416,-40,-4,-5,-6,-5,-4,2,3
1584990292.366856,-106,10,18,10,7,11,8,-63
1584990292.366856,69,-1,-2,3,0,1,4,72
1584990292.3806336,26,31,13,8,16,-2,2,6
1584990292.3806336,-34,-2,-11,-6,19,-12,-13,-11
1584990292.3894765,3,21,5,10,13,89,32,20
1584990292.3894765,69,-5,-3,-5,-43,-15,-3,97
1584990292.391128,72,13,17,7,31,-12,4,5
1584990292.391128,-82,6,5,-2,-1,5,-20,-110
1584990292.4119031,-31,-1,-5,-5,-6,-24,-15,67
1584990292.4119031,61,3,-1,3,0,8,-2,-122
1584990292.4135776,127,-12,-10,-7,-1,23,-35,104
1584990292.4135776,-61,-10,-2,-2,-6,-19,7,-4
1584990292.4255605,34,4,-5,-6,2,117,-41,39
1584990292.4255605,-64,-33,-17,-21,-17,-80,-37,-128
1584990292.4344182,-128,10,18,13,25,50,-6,66
1584990292.4344182,-76,-26,-6,-7,-6,-13,19,23
1584990292.45007,80,22,-1,1,26,-20,-6,-63
1584990292.45007,-74,-14,-2,4,-20,72,-29,-85
1584990292.4519827,0,15,-2,2,20,1,-7,-39
1584990292.4519827,62,12,0,1,-11,15,22,84
1584990292.4720051,-84,-9,-7,-4,-54,-7,-12,-27
1584990292.4720051,-46,-8,-1,-6,20,-17,-38,-12
1584990292.4740388,44,3,6,0,-12,-27,9,14
1584990292.4740388,-45,12,-4,2,0,19,23,105
1584990292.4944038,41,1,-10,-6,-7,-26,-7,-128
1584990292.4944038,6,-8,11,-1,-5,0,11,-6
1584990292.495886,34,15,8,2,2,-2,6,29
1584990292.495886,10,20,5,5,6,5,35,-17
1584990292.5094216,118,-4,-16,-11,-10,-47,20,68
1584990292.5094216,-128,-19,-1,-2,0,66,-36,30
1584990292.5111694,37,9,2,4,3,36,2,-6
1584990292.5111694,27,7,6,-1,-10,-72,23,12
1584990292.531903,34,6,-3,-1,1,-6,3,25
1584990292.531903,-128,-25,-8,-3,1,20,-1,-38
1584990292.5336545,-37,1,1,-4,33,-91,-11,29
1584990292.5336545,51,-11,-3,-8,-6,42,-6,-53
1584990292.5455313,20,10,4,-2,-3,9,4,32
1584990292.5455313,26,6,-3,1,-3,2,5,-12
1584990292.5619533,-87,6,14,7,-7,-14,7,7
1584990292.5619533,27,3,2,-4,-39,19,-5,2
1584990292.569371,49,4,-3,6,53,12,7,43
1584990292.569371,0,8,-2,4,2,-15,4,47
1584990292.5708551,127,16,0,-4,-12,29,-3,3
1584990292.5708551,-98,-2,2,-1,-2,3,13,8
1584990292.5919604,-125,-21,3,2,2,2,9,10
1584990292.5919604,27,18,10,-4,-9,-6,-13,-62
1584990292.5941894,-14,4,-9,2,2,2,10,32
1584990292.5941894,20,-3,0,1,3,-1,-5,-30
1584990292.6056225,-79,-17,-12,-8,-24,-48,-20,-64
1584990292.6056225,77,8,6,5,1,-11,6,22
1584990292.6143854,34,6,5,6,-2,-1,14,68
1584990292.6143854,-61,-23,-10,-8,11,-13,-65,-69
1584990292.6294022,2,6,-3,-4,0,12,13,29
1584990292.6294022,19,8,2,-3,1,-7,18,22
1584990292.6311522,1,0,0,-1,-6,-12,3,29
1584990292.6311522,-27,-4,2,-5,-2,3,6,6
1584990292.6594124,7,-3,3,-3,-7,-2,-3,-44
1584990292.6594124,2,8,-7,-4,-3,5,5,42
1584990292.6611133,22,-8,1,1,1,3,-9,-8
1584990292.6611133,-117,-3,-1,-3,0,-5,-3,-22
1584990292.6655388,59,-6,1,-2,-1,5,3,21
1584990292.6655388,1,8,-1,0,2,2,3,9
1584990292.6750398,17,-1,2,0,2,-2,4,-40
1584990292.6750398,1,-1,-4,0,1,-1,-7,1
1584990292.6968763,13,1,-2,2,-3,-3,-1,-7
1584990292.6968763,-9,8,-1,3,0,3,2,35
1584990292.6986032,-3,0,18,6,2,-1,-4,-12
1584990292.6986032,19,3,-10,-2,-1,2,10,36
1584990292.7119007,-20,-2,-8,-1,0,-1,23,21
1584990292.7119007,6,4,7,3,0,-1,-40,-25
1584990292.7137036,-4,4,-1,-2,0,-5,17,4
1584990292.7137036,-1,-16,-9,-2,-1,1,-6,1
1584990292.7256217,12,4,-1,0,1,-3,-1,6
1584990292.7256217,-5,1,9,-2,-6,-12,-14,-7
1584990292.7343683,6,6,-1,4,2,5,-5,-2
1584990292.7343683,-5,-7,-14,-4,-1,0,7,1
1584990292.7494316,4,-4,-3,0,2,8,18,7
1584990292.7494316,1,5,16,-1,0,6,26,3
1584990292.7508008,-5,0,-2,-1,-1,-1,-14,2
1584990292.7508008,7,-4,0,3,-5,-8,-26,-2
1584990292.7723975,-10,-1,2,1,0,-1,-5,-13
1584990292.7723975,-24,4,-4,0,-1,-3,9,5
1584990292.7742686,22,5,-1,0,-2,3,4,15
1584990292.7742686,58,-10,-3,1,1,-3,13,-4
1584990292.7856297,-45,6,3,0,2,2,-9,-9
1584990292.7856297,-1,-3,-7,-1,2,-1,3,-11
1584990292.794403,6,12,2,0,0,-1,7,10
1584990292.794403,4,1,4,1,0,4,-2,1
1584990292.8094988,1,-11,-2,-1,-1,1,6,15
1584990292.8094988,7,1,-3,1,-1,-6,-11,7
1584990292.811253,2,8,5,0,0,-2,6,-2
1584990292.811253,5,-3,-5,2,4,3,-11,-2
1584990292.831946,-3,-4,-1,-5,1,1,8,0
1584990292.831946,0,-6,-7,-1,0,-5,-12,0
1584990292.8337862,0,9,14,0,0,-3,5,-8
1584990292.8337862,2,3,1,1,6,5,28,3
1584990292.8456318,0,-5,-5,-5,4,5,5,3
1584990292.8456318,-2,-1,-4,0,-1,-3,-1,-1
1584990292.854399,-4,-1,2,-3,-8,-11,-61,-9
1584990292.854399,-5,-4,-3,1,2,1,1,-1
1584990292.868032,4,-6,-4,-1,2,3,-11,0
1584990292.868032,0,-2,1,2,1,3,39,3
1584990292.876874,2,8,5,4,-3,-4,14,-4
1584990292.876874,-2,-5,-7,1,-1,-3,-42,-8
1584990292.8919442,-6,-5,-3,-2,-4,1,-1,-9
1584990292.8919442,17,0,-6,-2,-4,0,9,6
1584990292.8940964,-36,-5,2,2,5,3,1,-7
1584990292.8940964,8,-3,-3,-1,0,-2,14,8
1584990292.914358,-1,13,15,2,-1,-1,-6,-12
1584990292.914358,1,-4,-8,-3,-2,-2,-3,2
1584990292.9165568,4,-6,-5,-1,-2,-2,-14,0
1584990292.9165568,-1,4,9,0,-1,0,1,-4
1584990292.928024,-3,5,-3,0,0,-1,11,11
1584990292.928024,-3,2,1,2,0,1,1,6
1584990292.9369097,0,3,1,5,0,0,1,-20
1584990292.9369097,-1,-5,-4,1,2,1,19,13
1584990292.9519374,2,1,0,0,-2,-1,-21,38
1584990292.9519374,4,0,-1,-1,-2,-3,-1,-21
1584990292.953342,-1,3,-4,-5,1,-1,27,-1
1584990292.953342,-7,1,-1,-1,-3,-5,-31,-1
1584990292.974412,2,-1,4,0,1,0,-23,-22
1584990292.974412,2,0,0,1,-2,3,43,-2
1584990292.9758184,1,2,1,-1,1,5,1,5
1584990292.9758184,-2,-3,-1,-5,-1,-6,4,-8
1584990292.9893715,-1,-2,4,-1,-2,-3,-23,-11
1584990292.9893715,-2,2,0,-2,-1,-6,28,-1
1584990292.9912028,1,3,3,5,0,2,-18,1
1584990292.9912028,-2,-5,-12,-3,-1,-4,3,-3
1584990293.0131285,0,-9,-3,-2,-3,-4,-18,-10
1584990293.0131285,0,15,19,0,1,0,3,1
1584990293.01477,1,1,-5,1,-3,2,7,4
1584990293.01477,-3,-6,-3,-3,-2,2,3,-1
1584990293.0343862,-3,1,-6,2,-1,2,3,1
1584990293.0343862,-3,-2,-7,-4,-5,-3,-2,-1
1584990293.0366821,-2,0,-7,-1,2,-1,1,-1
1584990293.0366821,2,2,9,-2,-1,-2,11,0
1584990293.0497773,0,-5,-1,3,2,-1,-8,0
1584990293.0497773,-1,-1,1,-2,1,-2,12,-1
1584990293.051213,0,3,-2,-3,1,1,5,-1
1584990293.051213,0,0,-2,1,-3,-3,-28,-7
1584990293.0718927,-1,-2,0,1,-3,-6,-3,18
1584990293.0718927,0,-5,1,0,-1,1,-11,-2
1584990293.0732858,-2,0,-1,1,0,4,18,2
1584990293.0732858,-3,1,1,0,0,3,3,4
1584990293.0945115,-7,-7,-1,-4,-4,3,-12,-17
1584990293.0945115,0,-2,-3,-3,-2,-1,-7,-3
1584990293.0962338,2,1,-4,0,-2,-3,-41,-6
1584990293.0962338,-1,-1,-4,-2,0,-3,16,-7
1584990293.1080322,0,-4,-2,0,1,1,9,1
1584990293.1080322,1,4,-1,-4,0,-1,4,1
1584990293.1168666,-1,0,-2,4,-2,1,1,0
1584990293.1168666,-2,-2,7,0,-1,0,3,-1
1584990293.1318324,3,12,5,2,-1,-4,-3,-2
1584990293.1318324,-1,-8,-10,-4,0,0,-2,0
1584990293.1334736,2,1,3,0,-1,3,3,2
1584990293.1334736,1,2,-1,1,0,-2,-1,-1
1584990293.1550758,-2,0,0,-2,-2,-6,-3,-1
1584990293.1550758,-2,-2,-3,-1,3,-2,-4,1
1584990293.1560018,1,-3,-8,-5,0,0,0,-3
1584990293.1560018,0,-1,-1,-1,-3,-1,-3,-3
1584990293.1681237,1,8,6,2,-1,4,4,10
1584990293.1681237,-4,1,4,2,0,-3,3,-8
1584990293.1788087,-1,4,6,1,1,0,-6,-1
1584990293.1788087,-1,-8,-6,1,-2,-1,-2,1
1584990293.191861,-2,9,-3,1,-3,-4,3,1
1584990293.191861,-1,-2,-8,-1,-4,0,4,0
1584990293.1941917,0,0,-1,2,-3,-1,-3,1
1584990293.1941917,-1,1,1,-2,-1,-1,2,2
1584990293.2136765,-1,-8,-8,-5,-2,-1,1,-3
1584990293.2136765,0,1,0,2,-2,-1,-4,1
1584990293.2147713,-1,5,10,3,2,2,4,1
1584990293.2147713,-2,3,-2,0,0,-1,-5,-2
1584990293.2368681,-3,-8,-10,-4,-1,-1,3,-4
1584990293.2368681,-3,-3,-3,2,0,3,4,3
1584990293.2377603,-4,-4,-3,-2,1,-3,8,1
1584990293.2377603,2,-3,-3,-2,-1,-3,-11,0
1584990293.251171,0,-3,1,-2,0,-1,-6,7
1584990293.251171,3,0,0,0,1,0,-1,-12
1584990293.252126,-1,8,12,5,-6,-5,2,-1
1584990293.252126,3,-1,-2,-2,0,4,3,2
1584990293.2819824,-3,-5,-1,-3,1,-4,-9,-4
1584990293.2819824,-1,0,-2,-2,-1,-3,-2,-1
1584990293.2836628,0,-3,5,5,3,-2,2,1
1584990293.2836628,-1,2,-5,-4,-3,-1,-1,0
1584990293.2968416,-2,-7,-5,-1,-1,-1,1,-2
1584990293.2968416,-3,-3,-7,-2,0,-2,1,-3
1584990293.3036954,-4,-1,5,0,1,0,-2,-2
1584990293.3036954,-3,3,-1,-3,-2,3,1,-1
1584990293.3111887,2,-1,7,3,2,1,-1,1
1584990293.3111887,-3,-2,-2,-2,-3,0,0,2
1584990293.3122983,-1,-3,-1,-1,0,-2,1,-1
1584990293.3122983,-5,-5,-9,-7,-2,0,3,0
1584990293.3336143,-3,3,5,0,2,-1,-3,-3
1584990293.3336143,3,0,-2,1,0,0,-6,0
1584990293.3349254,-4,2,-3,0,-3,-2,-4,-3
1584990293.3349254,-1,0,11,1,1,-1,2,-2
1584990293.3568752,1,4,0,3,3,-1,2,0
1584990293.3568752,2,-1,-10,-5,-1,-2,-1,3
1584990293.3581855,1,-3,4,0,0,2,-4,0
1584990293.3581855,-4,-1,1,-6,1,0,1,0
1584990293.3711755,1,-4,-4,0,0,2,5,2
1584990293.3711755,-2,-2,4,1,-1,-3,1,0
1584990293.3720787,0,-2,-1,0,-2,0,-4,0
1584990293.3720787,4,10,7,5,-2,0,-1,-1
1584990293.4094553,3,-4,3,0,-1,-3,-3,-1
1584990293.4094553,-6,-3,-5,-5,1,0,2,-1
1584990293.4108157,-2,1,1,3,2,1,1,1
1584990293.4108157,-2,5,3,-3,-1,1,-4,1
1584990293.4168265,-2,-7,-6,-3,-2,-2,1,-1
1584990293.4168265,3,4,1,4,2,0,-3,-3
1584990293.4180229,3,3,11,7,-1,-3,-3,-1
1584990293.4180229,1,2,-5,-2,-1,0,-2,3
1584990293.4311557,-2,-7,-6,-4,0,1,4,-7
1584990293.4311557,-4,-2,-5,1,3,-1,0,1
1584990293.4324605,-1,8,8,2,1,-1,-4,0
1584990293.4324605,-2,-8,-4,-1,-2,-4,1,1
1584990293.4536612,-3,-4,-7,-1,-2,-3,0,-3
1584990293.4536612,1,3,0,0,2,-2,-2,-1
1584990293.4545176,1,12,15,1,1,-1,2,6
1584990293.4545176,2,2,0,0,-1,-1,0,1
1584990293.477346,0,-7,-6,-1,0,0,2,0
1584990293.477346,3,-7,-9,-4,0,0,-3,1
1584990293.4786978,-3,2,-3,-1,-1,2,-2,-4
1584990293.4786978,7,2,11,4,3,4,3,-1
1584990293.492584,-4,-6,-1,0,-2,-1,-7,-1
1584990293.492584,3,-10,-8,-3,-6,-3,-2,0
1584990293.494058,1,6,6,0,-1,0,-3,0
1584990293.494058,-1,5,6,1,2,-1,-1,-1
1584990293.5136342,-2,-1,1,2,2,-3,2,2
1584990293.5136342,5,2,2,0,-1,0,0,4
1584990293.5149217,3,-1,-10,-5,-6,-1,-2,-6
1584990293.5149217,-22,-6,-3,-7,-4,-4,-1,-3
1584990293.536828,7,1,5,-1,-1,-1,0,-1
1584990293.536828,5,1,0,-3,-1,0,2,3
1584990293.5377154,3,-1,0,-5,1,2,0,-1
1584990293.5377154,5,-4,-5,-2,1,1,-1,0
1584990293.5512002,0,4,0,2,-2,0,-5,0
1584990293.5512002,-1,-2,1,0,-3,-3,-2,-1
1584990293.5524035,3,-3,-1,1,2,1,0,1
1584990293.5524035,3,2,7,-1,-2,0,-2,-1
1584990293.5735784,1,3,-3,2,0,-1,1,3
1584990293.5735784,4,-6,-9,1,-1,-2,1,2
1584990293.5743446,-6,0,6,0,-1,1,-3,-1
1584990293.5743446,-19,3,-2,1,2,-2,1,-9
1584990293.5959823,2,-6,-5,-4,0,-1,2,-3
1584990293.5959823,8,2,7,6,2,1,-1,4
1584990293.6036756,4,3,6,0,-1,3,0,1
1584990293.6036756,0,-4,-6,-5,0,-2,-1,1
1584990293.6111896,2,-2,-5,-6,-1,0,-4,1
1584990293.6111896,-5,-4,5,4,3,-1,-1,-1
1584990293.6124127,7,4,1,2,-3,2,2,6
1584990293.6124127,-14,-6,-5,-2,-5,1,-1,-4
1584990293.633612,1,-3,2,3,0,-2,-1,-3
1584990293.633612,6,1,2,-2,2,-4,-1,-1
1584990293.6348794,6,5,1,2,0,-1,0,4
1584990293.6348794,5,-3,1,-1,0,3,1,2
1584990293.6568553,-9,-3,2,-2,0,0,-2,-6
1584990293.6568553,-7,0,-3,0,-1,-5,-4,-10
1584990293.6581697,3,-3,-3,-1,0,1,3,0
1584990293.6581697,15,-3,0,0,0,-2,1,9
1584990293.6711724,-4,0,8,1,2,0,1,1
1584990293.6711724,-20,-2,-4,0,0,0,-3,-5
1584990293.6720786,7,-2,-3,1,-6,-1,-3,0
1584990293.6720786,6,-4,-3,-3,-4,1,-1,2
1584990293.6940627,15,1,1,-2,-2,-1,3,8
1584990293.6940627,-6,2,0,0,-1,2,2,1
1584990293.6955233,0,-1,-2,-3,-4,-2,-3,-6
1584990293.6955233,-4,-5,4,-2,1,2,2,2
1584990293.716874,5,6,7,3,1,0,0,3
1584990293.716874,21,1,-6,-5,0,-2,2,3
1584990293.7177792,-24,1,-1,1,2,19,0,-4
1584990293.7177792,21,0,-4,-1,-4,-15,1,21
1584990293.7312028,-14,-10,0,-2,-1,-5,-3,-14
1584990293.7312028,-11,4,3,-5,-5,11,-1,-35
1584990293.7323773,17,6,5,0,-1,-3,-1,16
1584990293.7323773,17,1,-2,-1,6,2,5,19
1584990293.7536283,-58,-10,-4,-4,2,0,-2,-11
1584990293.7536283,8,-1,-5,4,0,-1,1,3
1584990293.7545133,7,0,4,-2,-1,2,-1,-6
1584990293.7545133,8,3,-4,2,1,2,0,1
1584990293.777335,-3,-3,-6,-3,-1,1,3,6
1584990293.777335,1,3,-3,-1,1,-2,0,-1
1584990293.778677,-1,0,9,7,-1,-2,0,-1
1584990293.778677,5,1,6,-3,1,0,-2,0
1584990293.7912285,-4,6,8,3,0,1,2,-4
1584990293.7912285,-3,-8,-11,-4,-3,1,-5,-1
1584990293.7924964,-4,-9,-13,-3,-3,-1,1,-4
1584990293.7924964,2,0,11,3,1,2,1,1
1584990293.8136754,-1,-1,4,-1,0,1,-1,-6
1584990293.8136754,-11,8,-2,1,3,-3,-1,-3
1584990293.8150356,-5,-6,-6,-2,-4,2,-4,-2
1584990293.8150356,-3,-5,-2,-4,1,0,1,4
1584990293.8368752,7,4,2,2,5,-1,0,4
1584990293.8368752,-9,-3,-1,0,-4,-2,-3,8
1584990293.8377533,21,6,-4,-1,-3,1,1,8
1584990293.8377533,-2,2,6,0,0,0,2,3
1584990293.851444,-57,-5,2,1,-1,0,-5,-33
1584990293.851444,33,5,2,0,-1,0,5,41
1584990293.8523436,25,13,0,2,2,1,8,19
1584990293.8523436,50,-9,-6,-3,-4,-1,1,15
1584990293.8818798,31,4,-4,-2,0,-7,0,9
1584990293.8818798,-19,4,3,2,0,3,4,15
1584990293.8836339,-12,-2,-1,0,1,-1,1,-14
1584990293.8836339,39,7,7,0,2,2,3,18
1584990293.8968437,-30,-9,-1,-2,-1,2,-2,8
1584990293.8968437,40,15,3,1,-3,-11,-3,3
1584990293.898098,-76,8,1,0,0,4,6,37
1584990293.898098,5,-27,-6,-5,3,10,-12,-44
1584990293.911227,-101,-6,1,2,6,-40,-9,-61
1584990293.911227,-3,10,1,5,7,15,15,-24
1584990293.912548,73,-3,-6,-6,0,0,3,7
1584990293.912548,-128,-29,-7,-9,-4,-16,-34,-104
1584990293.933636,-28,-7,2,2,13,63,-1,-63
1584990293.933636,114,-1,-5,-4,-8,-50,-1,38
1584990293.9349344,-42,40,9,6,0,-15,36,123
1584990293.9349344,-40,13,22,20,17,20,19,-26
1584990293.9562929,118,-28,-14,-15,-9,-50,-37,-128
1584990293.9562929,63,12,-13,-7,-1,57,12,127
1584990293.9578493,-18,23,23,10,8,-7,25,-19
1584990293.9578493,82,-42,-21,-10,-2,-8,-122,-128
1584990293.9725082,85,7,-7,-1,3,39,-8,127
1584990293.9725082,-33,5,12,9,0,-61,15,-45
1584990293.9734354,41,9,7,5,-5,-21,-7,-35
1584990293.9734354,127,-14,-16,-6,-5,3,-2,94
1584990293.9942777,-23,6,13,8,-1,51,49,22
1584990293.9942777,-35,-4,0,-9,-26,-88,-21,-20
1584990293.9960318,60,1,-4,-6,47,-35,-18,-118
1584990293.9960318,47,48,19,7,25,47,68,114
1584990294.0166073,-30,-34,-3,0,10,43,-4,-77
1584990294.0166073,-36,7,-10,-2,-14,36,22,19
1584990294.0237074,-98,-37,-8,-4,-4,-100,-7,38
1584990294.0237074,-14,17,7,-1,-64,-23,25,61
1584990294.0311377,81,19,13,7,-25,35,-54,-128
1584990294.0311377,-128,-19,-10,-5,65,-40,-2,-100
1584990294.0324044,127,14,-10,-5,-20,-61,3,72
1584990294.0324044,-53,7,7,-4,-23,-8,7,24
1584990294.0536566,127,-3,-18,-14,-75,18,-44,9
1584990294.0536566,-104,15,14,12,50,-30,10,6
1584990294.0545335,38,-30,-11,-7,8,18,-5,-100
1584990294.0545335,19,7,6,1,-3,21,-18,5
1584990294.076199,-70,-3,-11,-4,-6,-20,39,-57
1584990294.076199,120,-16,0,2,-4,9,-10,-47
1584990294.0775995,-90,-6,-6,-4,-49,-31,-14,-27
1584990294.0775995,124,-7,-6,2,40,13,20,44
1584990294.0911453,121,16,7,9,-1,3,13,40
1584990294.0911453,-15,-7,-8,-3,25,4,23,-38
1584990294.0925443,11,-1,-9,-10,-2,3,-19,-74
1584990294.0925443,-121,1,9,-4,-32,-36,7,-19
1584990294.1299891,-22,-3,3,-6,-86,-30,36,54
1584990294.1299891,127,18,-14,5,127,48,5,25
1584990294.1311858,34,3,-7,-2,-57,20,34,93
1584990294.1311858,-128,-33,-5,-11,-46,-24,-40,-103
1584990294.1361623,33,12,9,8,68,33,24,38
1584990294.1361623,10,-12,-10,-9,-29,-128,-27,19
1584990294.1370845,-87,16,18,14,5,47,-15,19
1584990294.1370845,121,-11,-13,-10,-13,-2,-3,127
1584990294.1511383,-128,-24,-6,-5,-10,-24,-1,-9
1584990294.1511383,74,20,-3,1,-6,-12,5,-36
1584990294.1524146,-128,-36,-16,-3,-2,59,-3,-50
1584990294.1524146,78,33,14,12,11,-15,25,127
1584990294.17364,76,9,16,1,3,0,42,49
1584990294.17364,-27,0,7,4,-23,15,-10,-48
1584990294.1745398,26,10,-5,-2,20,-1,15,115
1584990294.1745398,-70,-8,-4,0,1,0,-14,-128
1584990294.1961184,-22,-8,-4,3,8,2,-8,18
1584990294.1961184,58,7,0,-5,31,-9,-27,-41
1584990294.197319,23,13,1,3,-7,64,16,100
1584990294.197319,-26,-18,-10,-7,-12,-73,-14,-67
1584990294.2111554,68,7,4,2,12,25,17,8
1584990294.2111554,4,-25,-3,-8,-16,-7,-3,-16
1584990294.2125473,3,10,-3,4,-2,9,-8,51
1584990294.2125473,-41,-6,0,4,13,5,-50,1
1584990294.2336226,47,1,-6,-2,-23,-11,4,-9
1584990294.2336226,-13,-10,-3,-2,53,25,-31,-15
1584990294.2349243,-38,-17,-16,-12,-12,-21,-19,-103
1584990294.2349243,-18,-14,-1,0,-6,6,12,-1
1584990294.256144,46,29,18,9,5,13,28,106
1584990294.256144,31,-13,0,-4,-8,-2,-12,-48
1584990294.2575295,0,-1,-13,-5,-6,-8,-13,-67
1584990294.2575295,-79,-4,-4,-3,-25,5,1,3
1584990294.2712448,30,-3,-2,-1,18,2,17,-29
1584990294.2712448,26,-7,-10,-3,-2,-42,2,-48
1584990294.2721503,-28,5,0,8,30,31,11,-19
1584990294.2721503,0,-3,17,1,-13,-14,-3,26
1584990294.2935703,9,13,9,3,-5,-10,-3,-17
1584990294.2935703,-51,-9,-7,-2,2,4,7,-5
1584990294.2943137,3,7,-8,1,-9,-30,-14,24
1584990294.2943137,-14,-6,-3,-4,-12,18,7,-49
1584990294.3243687,127,34,9,8,23,31,37,127
1584990294.3243687,-128,-48,-7,-6,-38,-10,-10,-22
1584990294.3257146,115,0,-14,-9,9,-41,-24,-81
1584990294.3257146,-21,4,12,8,-9,-6,13,36
1584990294.3311408,22,0,-1,0,-9,9,12,60
1584990294.3311408,-25,0,6,-3,-2,13,-2,-20
1584990294.332427,-17,1,0,3,-2,-5,3,0
1584990294.332427,62,-2,-5,-3,-4,-12,8,21
1584990294.3694224,-25,1,1,0,3,0,8,16
1584990294.3694224,-39,7,5,7,13,34,6,73
1584990294.3703318,-44,-13,4,-1,0,8,11,-45
1584990294.3703318,-33,-7,-9,-6,-6,-20,13,61
1584990294.3763566,32,-4,1,-2,-1,-24,-19,-74
1584990294.3763566,-19,4,-1,-1,4,20,-2,-8
1584990294.377599,-50,-6,-1,3,2,2,0,-4
1584990294.377599,51,15,16,5,34,12,4,28
1584990294.391167,-33,-5,-3,1,-9,14,16,33
1584990294.391167,42,4,-2,-3,-31,-7,-5,-49
1584990294.3924994,6,4,5,6,17,11,-9,21
1584990294.3924994,42,7,5,0,-8,-8,10,-19
1584990294.413607,-46,-2,1,-1,9,13,-5,-25
1584990294.413607,-54,-16,-8,-1,-2,11,-6,-69
1584990294.4149015,-25,-5,-5,-3,-4,-11,-29,-25
1584990294.4149015,-43,4,5,5,-1,7,31,60
1584990294.436635,14,-7,-2,-3,-2,-6,-7,-32
1584990294.436635,78,0,2,-3,-6,-9,-18,15
1584990294.4375217,33,19,6,-2,-3,-5,-4,3
1584990294.4375217,-13,-4,-5,-2,0,12,4,-23
1584990294.4511507,-9,0,2,-1,1,-14,8,15
1584990294.4511507,27,1,-9,-1,-1,2,7,1
1584990294.4523823,-7,0,4,-3,-3,-1,-6,-19
1584990294.4523823,12,11,12,6,3,3,14,23
1584990294.4825532,-7,-10,1,-2,0,0,-13,-7
1584990294.4825532,-1,-2,-4,-5,-4,-9,-11,-7
1584990294.4838705,1,-1,-10,-5,-5,3,15,12
1584990294.4838705,6,-3,-2,-2,-1,2,-28,-8
1584990294.4961653,-3,-5,2,1,-4,0,33,-2
1584990294.4961653,-6,7,0,-2,-2,0,-18,-1
1584990294.4974256,-3,-7,-5,-5,-1,-6,2,7
1584990294.4974256,76,18,5,-2,0,-1,-3,40
1584990294.5111463,-128,-26,-7,-2,-2,-3,-19,-83
1584990294.5111463,27,5,-3,4,-2,3,12,3
1584990294.5125408,13,5,7,0,-1,-1,12,6
1584990294.5125408,50,6,3,3,3,6,11,9
1584990294.5335925,5,-8,-5,-2,0,-1,-6,6
1584990294.5335925,-11,-1,1,-1,1,3,11,8
1584990294.5349133,-17,-6,-4,-2,-1,-3,0,2
1584990294.5349133,-16,3,6,1,1,-2,-18,-3
1584990294.5562158,6,-19,-7,-4,-3,0,0,-19
1584990294.5562158,-2,8,5,0,-1,0,5,-1
1584990294.5576098,-1,0,-3,3,0,-6,4,-1
1584990294.5576098,-1,-1,0,-3,-1,-2,-7,1
1584990294.5703924,1,-3,-1,2,4,1,8,-8
1584990294.5703924,-1,-3,-7,-4,-1,2,-17,7
1584990294.578586,-1,0,-1,-1,2,0,29,-1
1584990294.578586,-3,3,-2,-2,-2,-5,-14,-3
1584990294.5934317,1,-8,-3,-2,0,-2,-21,-7
1584990294.5934317,-1,5,7,0,-3,-1,-8,-2
1584990294.6011894,2,4,-1,1,4,5,36,4
1584990294.6011894,22,-4,-7,1,2,1,4,9
1584990294.6161819,-41,-12,-7,-6,-3,-7,-44,-17
1584990294.6161819,5,2,2,-2,-4,-1,0,-1
1584990294.6176326,9,1,11,3,1,6,0,5
1584990294.6176326,0,3,-5,-6,0,4,10,1
1584990294.6393108,26,1,-5,-3,2,1,5,16
1584990294.6393108,-30,-7,-4,-2,-2,0,-9,-23
1584990294.6401849,18,-3,0,4,-3,-3,-6,-17
1584990294.6401849,13,-1,1,-4,-3,-2,-11,5
1584990294.6536446,-2,6,5,-1,-1,-1,6,14
1584990294.6536446,-5,7,2,1,3,2,4,-11
1584990294.654906,-3,-4,-4,-1,2,0,-3,0
1584990294.654906,-1,-4,-2,1,-2,0,3,-1
1584990294.6762023,0,1,6,-1,-3,0,-1,0
1584990294.6762023,1,2,-1,3,0,0,-2,0
1584990294.6777613,0,-2,-4,2,1,3,3,3
1584990294.6777613,-3,-2,3,-3,1,-1,13,2
1584990294.6993527,0,-7,-3,-1,1,-6,-47,-5
1584990294.6993527,-1,0,-7,-1,0,-2,10,-1
1584990294.700615,0,1,3,-3,0,6,21,3
1584990294.700615,2,-1,3,-1,-3,-2,-6,5
1584990294.71406,-1,-1,0,-1,-5,2,-4,-12
1584990294.71406,4,-2,-5,-4,1,2,-2,1
1584990294.7155519,-2,-2,-2,-3,-1,3,14,1
1584990294.7155519,0,-2,4,0,0,2,5,2
1584990294.7361016,-4,3,-2,-3,3,-1,-12,10
1584990294.7361016,-2,-1,1,4,-1,-3,10,-8
1584990294.737067,-1,4,3,2,-3,-1,-15,-3
1584990294.737067,-1,-9,0,-2,1,1,-3,-11
1584990294.7593503,1,1,-3,-2,1,-3,5,10
1584990294.7593503,2,0,0,1,0,1,4,-3
1584990294.7605808,0,-3,-2,0,1,1,-10,-4
1584990294.7605808,-1,-7,-2,-2,2,-3,5,-9
1584990294.773604,-6,1,5,1,-3,0,-5,-32
1584990294.773604,1,7,-4,1,-3,-2,3,12
1584990294.7744927,0,1,8,1,-2,-4,-13,-27
1584990294.7744927,1,-1,-3,1,1,3,-2,7
1584990294.7962217,0,-4,-6,-4,-2,1,6,7
1584990294.7962217,-4,2,-3,0,1,-1,1,1
1584990294.7977157,1,-2,0,-1,2,2,1,5
1584990294.7977157,-1,4,-1,-4,0,1,2,0
1584990294.819324,-1,-6,-1,-1,-1,2,-2,0
1584990294.819324,0,-1,-4,0,5,-1,2,1
1584990294.8206806,0,4,2,-1,-1,-2,6,4
1584990294.8206806,0,-2,1,-1,-3,0,-1,-3
1584990294.8484313,0,-12,-8,2,-5,-2,-3,0
1584990294.8484313,3,9,1,1,-3,-1,3,-3
1584990294.857447,0,-2,-1,0,-1,-1,0,-2
1584990294.857447,2,-1,-1,2,-1,-1,0,-1
1584990294.8588555,-1,3,-1,4,0,0,4,4
1584990294.8588555,-1,7,3,1,-2,0,-4,1
1584990294.859624,-1,-5,-3,-1,-3,2,-3,2
1584990294.859624,2,-2,-1,-6,4,1,-1,1
1584990294.8798153,1,4,4,2,-1,-4,-2,-2
1584990294.8798153,5,-5,-12,-2,-1,-3,-3,2
1584990294.881049,-3,-2,8,0,1,1,0,0
1584990294.881049,-1,5,3,-1,-2,-1,3,2
1584990294.8936176,0,-8,-3,-1,1,-2,-1,1
1584990294.8936176,1,-3,-2,-1,0,2,0,-3
1584990294.8948457,1,0,1,-1,-1,1,-6,-1
1584990294.8948457,-2,-6,1,-1,-1,-1,-1,0
1584990294.9160976,0,0,2,-3,-4,5,4,5
1584990294.9160976,0,-3,-6,1,1,0,-1,-3
1584990294.9173157,-2,1,5,-1,-1,2,-1,1
1584990294.9173157,-1,1,5,0,-1,0,2,3
1584990294.939262,1,5,-3,1,-1,-1,2,0
1584990294.939262,-2,-4,-6,1,1,-1,-4,-2
1584990294.9401913,-2,6,13,1,-2,-2,3,2
1584990294.9401913,1,-3,-8,0,-1,-2,-5,-1
1584990294.9536057,1,-7,0,-3,-2,-1,-10,-10
1584990294.9536057,1,-1,2,2,2,0,5,11
1584990294.954867,-2,3,-4,-2,-4,-1,4,-4
1584990294.954867,0,-10,-1,-4,-2,1,4,0
1584990294.9761815,-2,3,0,-5,-1,1,0,0
1584990294.9761815,7,3,0,4,5,-3,-6,-1
1584990294.9775577,-4,1,1,1,1,-3,2,2
1584990294.9775577,-3,-4,-2,-1,-1,-1,-1,-3
1584990294.9992883,9,-1,-3,1,-1,3,0,3
1584990294.9992883,-1,3,4,2,0,-2,1,-3
1584990295.0006094,3,0,-1,-1,-2,-1,-1,0
1584990295.0006094,8,-9,-4,-3,3,-1,0,-1
1584990295.0136764,-6,5,0,-6,-3,-1,-1,1
1584990295.0136764,-10,-2,-9,-2,-3,-3,-3,-3
1584990295.0149035,1,-1,1,0,1,-1,-1,2
1584990295.0149035,17,1,8,-1,1,0,-2,3
1584990295.0360544,-6,3,4,1,1,1,1,2
1584990295.0360544,-9,-3,-6,-2,0,-2,-3,-21
1584990295.0369074,2,-5,-4,-2,0,-2,-4,0
1584990295.0369074,-4,-6,-4,-4,-2,-2,-3,-2
1584990295.059389,9,-1,-1,1,2,-1,1,5
1584990295.059389,-7,6,2,-1,1,-2,3,1
1584990295.0607145,6,-2,-2,-1,-1,-2,-1,-1
1584990295.0607145,1,-3,-5,-1,1,-1,0,2
1584990295.0736141,0,0,2,3,-1,0,3,3
1584990295.0736141,0,0,1,1,-2,0,-1,0
1584990295.074517,-1,-1,0,1,0,-1,-1,-2
1584990295.074517,0,-10,-7,-2,2,-2,1,-1
1584990295.0961819,-1,11,10,0,0,0,0,-5
1584990295.0961819,2,-3,-13,-5,1,3,0,3
1584990295.0977201,3,0,3,0,-2,-2,0,2
1584990295.0977201,-4,-3,1,3,1,0,-5,-3
1584990295.1193032,3,3,-1,-2,-3,1,-1,-1
1584990295.1193032,3,-6,-11,-1,0,-1,1,1
1584990295.120601,2,4,8,0,-1,-4,0,0
1584990295.120601,1,-1,3,0,2,0,2,4
1584990295.1335828,18,-2,-2,-3,-2,1,-1,3
1584990295.1335828,-22,-1,-6,1,-3,2,2,5
1584990295.134929,-15,-7,-3,-5,-3,-2,-3,-12
1584990295.134929,3,-2,-4,-2,-1,-1,-2,1
1584990295.1562648,11,7,13,6,3,1,3,-1
1584990295.1562648,2,4,2,-1,2,-2,-2,2
1584990295.157655,2,-4,-6,-1,-3,3,-1,3
1584990295.157655,-2,-5,-5,-2,-1,-3,-5,2
1584990295.1794808,5,-2,-1,-4,1,1,-3,-3
1584990295.1794808,-21,-3,-1,-1,-4,-2,0,-5
1584990295.181681,4,6,2,3,0,-3,-1,3
1584990295.181681,-2,-1,-1,-1,-5,2,-2,-1
1584990295.1936052,0,0,6,1,-1,-2,-1,-2
1584990295.1936052,12,5,-3,2,-1,0,4,6
1584990295.1947558,1,1,-2,-4,2,16,1,11
1584990295.1947558,5,-6,-5,-2,1,-18,-4,0
1584990295.216195,-92,-9,1,-4,1,13,-4,-37
1584990295.216195,-22,-7,-6,-3,-1,-2,-8,-25
1584990295.2172868,24,5,3,4,-3,5,7,20
1584990295.2172868,12,3,6,3,-1,-9,0,24
1584990295.2392642,10,1,-3,2,2,-2,3,17
1584990295.2392642,-16,-4,-1,3,3,-1,-1,-34
1584990295.240136,13,-5,-5,-1,-3,12,-5,-18
1584990295.240136,-13,-7,-3,-6,-4,-27,-9,-5
1584990295.2536058,10,2,2,-2,0,5,4,13
1584990295.2536058,-4,8,0,3,-103,5,3,2
1584990295.2548406,51,3,4,13,127,36,0,18
1584990295.2548406,-66,-11,0,-1,-19,-29,-3,-8
1584990295.2761152,38,11,-2,2,19,18,4,34
1584990295.2761152,-27,4,-2,-2,-18,-4,-2,-7
1584990295.277492,60,1,6,0,3,9,-8,-38
1584990295.277492,-113,-14,-2,-2,10,50,-2,-74
1584990295.2993226,-16,-18,-9,-7,-12,-83,-10,26
1584990295.2993226,21,13,4,2,0,6,9,69
1584990295.3006437,13,2,0,1,-1,15,10,-33
1584990295.3006437,16,10,3,1,5,-5,3,127
1584990295.3136058,-15,-7,-1,2,6,1,8,-30
1584990295.3136058,-45,10,-4,2,15,48,13,9
1584990295.3150194,26,-19,-2,-9,-24,-29,-8,-128
1584990295.3150194,67,-28,-17,-17,4,-38,-14,86
1584990295.3360689,-4,10,1,-3,-8,-51,-12,15
1584990295.3360689,17,11,0,5,4,72,26,68
1584990295.3374305,-10,1,5,0,-92,33,25,-37
1584990295.3374305,-42,10,-6,-2,55,-11,2,26
1584990295.359303,8,-11,-4,3,20,-56,-4,62
1584990295.359303,-128,4,-4,-5,-5,-19,49,21
1584990295.3601856,37,-41,-26,-10,6,3,-33,-87
1584990295.3601856,-84,-2,-9,-17,-59,-58,-33,-58
1584990295.3736017,39,37,17,13,47,-18,58,75
1584990295.3736017,-16,31,14,19,0,38,38,-28
1584990295.3744638,127,4,-3,-6,-4,16,62,-9
1584990295.3744638,-128,19,19,15,26,30,-24,111
1584990295.3961196,127,5,-5,2,-7,5,13,121
1584990295.3961196,-46,-24,-12,-10,11,-26,-19,-82
1584990295.3974774,-109,-12,-3,-2,-24,-45,-6,-36
1584990295.3974774,127,4,-5,-7,-22,-24,2,30
1584990295.4196508,-63,15,9,11,44,17,43,127
1584990295.4196508,-67,-18,-19,-18,-21,-7,-28,-39
1584990295.4209256,-128,-29,1,4,0,1,22,-85
1584990295.4209256,11,-7,-11,-14,-62,-122,-79,-108
1584990295.4349742,-53,19,4,10,16,127,65,-78
1584990295.4349742,-128,3,10,11,69,-11,-56,50
1584990295.4363012,127,-8,-1,2,5,-8,22,127
1584990295.4363012,127,33,-5,-6,-3,11,8,11
1584990295.4578125,127,39,19,12,4,37,2,127
1584990295.4578125,-128,-87,-35,-20,-16,-45,-27,-128
1584990295.471261,-120,8,1,2,3,-12,15,105
1584990295.471261,127,53,22,19,11,26,51,127
1584990295.479277,-128,-54,-18,-11,-3,-1,-57,-128
1584990295.479277,-110,11,8,5,21,11,27,61
1584990295.4805033,-128,21,13,10,12,61,17,-2
1584990295.4805033,72,-69,-32,-18,-19,-1,-67,-128
1584990295.492929,20,26,8,-1,-11,-62,21,127
1584990295.492929,127,11,0,8,58,33,-4,48
1584990295.5011015,51,-4,-10,-11,-16,48,4,20
1584990295.5011015,103,30,19,8,2,-4,31,127
1584990295.516095,-128,-53,-13,-15,-24,-11,-10,-88
1584990295.516095,78,-11,-12,-6,109,23,-20,-112
1584990295.5173466,-51,-2,-5,-10,-71,-74,-14,-113
1584990295.5173466,-69,4,6,6,53,-37,-52,-60
1584990295.5467613,4,-8,2,12,33,-11,22,24
1584990295.5467613,127,19,0,-6,15,94,4,-48
1584990295.548011,-12,-26,-12,-16,-15,8,-12,51
1584990295.548011,-44,-2,-3,4,-8,-31,18,61
1584990295.562944,50,11,-2,3,-8,-21,-27,-28
1584990295.562944,-13,5,5,0,-3,2,21,127
1584990295.5643318,60,3,4,0,-7,-23,-33,-128
1584990295.5643318,-92,-21,-14,-2,7,30,-24,-56
1584990295.5760849,127,20,-6,-6,0,4,9,99
1584990295.5760849,-53,-25,-1,-2,2,0,-7,-47
1584990295.5773063,-64,5,1,5,8,-11,-13,45
1584990295.5773063,127,12,-8,-8,-16,-6,20,-8
1584990295.5999262,-58,-5,-3,-1,-29,1,-5,-100
1584990295.5999262,39,6,-4,1,3,30,-26,-49
1584990295.6012325,61,22,15,8,34,2,24,53
1584990295.6012325,-128,-4,2,3,4,-1,-3,37
1584990295.6217782,127,-27,-26,-18,-14,-3,-44,-128
1584990295.6217782,-128,12,5,0,-19,-15,18,127
1584990295.623093,-128,-2,12,9,-28,23,-8,-73
1584990295.623093,127,19,-2,6,45,-22,8,105
1584990295.6361055,-31,0,5,4,18,-5,-21,-1
1584990295.6361055,56,-2,-6,-1,-10,2,17,-11
1584990295.6373775,41,-2,-4,-8,-50,9,6,91
1584990295.6373775,-128,-3,19,16,61,-45,-43,-77
1584990295.6592605,-23,-22,-21,-14,-12,-5,-41,-15
1584990295.6592605,14,5,0,-4,-5,9,-24,-67
1584990295.6601691,58,35,13,9,3,22,25,127
1584990295.6601691,-117,-42,-19,-18,-37,-36,-32,-128
1584990295.6893167,-2,20,4,7,27,21,9,29
1584990295.6893167,-63,-11,-4,-1,9,5,14,46
1584990295.690242,-43,-1,0,-1,-6,6,-32,-27
1584990295.690242,19,-15,-3,-7,-32,-7,-27,-72
1584990295.7118785,73,18,-1,5,6,1,38,53
1584990295.7118785,-99,-2,1,-1,7,6,-7,-73
1584990295.7133713,127,5,-4,1,-4,-6,9,13
1584990295.7133713,-101,-3,2,6,7,10,23,32
1584990295.7192447,-30,9,-3,3,1,-18,-15,21
1584990295.7192447,98,0,1,1,2,16,-19,-33
1584990295.7204208,-40,17,10,6,8,-12,19,50
1584990295.7204208,-8,-28,-13,-9,-5,-7,-4,13
1584990295.7416778,-78,-16,-12,-8,30,-16,2,-3
1584990295.7416778,6,9,2,1,-20,1,9,-90
1584990295.7431018,17,4,2,1,-47,-1,6,-15
1584990295.7431018,26,6,-11,-3,107,15,-6,49
1584990295.7561488,-6,18,10,11,8,49,27,52
1584990295.7561488,-44,-27,-8,-15,-44,-65,-31,-56
1584990295.7570505,-5,0,-2,1,9,36,15,-48
1584990295.7570505,-22,1,1,-4,-7,-2,2,25
1584990295.7792845,40,7,-2,2,-37,-21,12,3
1584990295.7792845,21,5,4,5,18,21,-3,52
1584990295.7804673,30,-8,-2,-4,-11,-14,-6,49
1584990295.7804673,-18,-34,-13,-5,-7,-13,-6,-81
1584990295.8023841,-128,14,3,4,-1,-3,33,43
1584990295.8023841,66,-17,-1,-6,-1,-14,-39,-84
1584990295.8037586,25,12,-7,-5,0,-4,7,-1
1584990295.8037586,-15,-6,-3,1,3,4,17,30
1584990295.8159597,17,1,8,3,6,5,14,44
1584990295.8159597,-22,5,13,-1,-5,-11,-15,-24
1584990295.8236399,13,-3,-10,-4,1,3,17,-10
1584990295.8236399,1,-4,-2,-1,1,1,0,18
1584990295.8392622,0,-1,7,0,2,0,0,-5
1584990295.8392622,18,5,-4,-1,0,2,1,23
1584990295.8405864,-39,-22,-9,-1,0,-8,-2,-29
1584990295.8405864,-6,-10,-1,-8,-4,-5,-13,-8
1584990295.861763,51,9,-5,-2,-1,-1,-2,5
1584990295.861763,-19,3,1,0,-1,4,3,8
1584990295.8633513,3,-5,-4,-3,-2,-2,2,-19
1584990295.8633513,77,-3,-3,1,-2,3,2,34
1584990295.8761191,-65,-22,-7,-4,-1,-6,-8,-2
1584990295.8761191,31,14,12,5,3,3,5,34
1584990295.8775725,-22,-4,4,2,4,-3,-4,-55
1584990295.8775725,21,-5,-5,-6,0,0,10,5
1584990295.899297,4,9,0,3,3,-3,-10,19
1584990295.899297,21,-1,-1,4,4,-3,5,29
1584990295.9006686,13,-8,-12,-8,-3,-7,-13,-29
1584990295.9006686,-32,-6,2,-4,0,5,-2,4
1584990295.9217927,4,12,9,4,1,3,10,29
1584990295.9217927,9,-1,-4,3,0,3,4,-5
1584990295.9231043,-2,-3,-4,-2,-1,4,-10,2
1584990295.9231043,-8,-3,0,-2,-2,-1,11,6
1584990295.9360976,19,6,-5,0,1,-2,-11,-7
1584990295.9360976,-9,-4,-5,-6,-1,-4,8,-1
1584990295.9373639,2,-3,-4,-3,0,1,14,0
1584990295.9373639,6,15,14,2,1,5,2,10
1584990295.9592543,-2,9,9,2,2,1,-3,-5
1584990295.9592543,-7,-8,-11,-5,-3,-7,-29,-4
1584990295.9601853,-15,-7,-5,-3,-4,0,8,-4
1584990295.9601853,15,-5,-5,2,0,12,64,5
1584990295.989367,2,0,9,-1,0,-4,-83,4
1584990295.989367,-37,-6,-12,-2,-6,-13,19,-7
1584990295.9902844,-6,-1,-3,-3,1,3,23,-6
1584990295.9902844,-23,-4,5,2,0,-2,-51,-6
1584990295.9961023,25,2,0,-1,-1,0,20,12
1584990295.9961023,-8,-4,2,1,1,14,34,-21
1584990295.997359,-12,7,8,1,4,4,14,6
1584990295.997359,-10,-10,-7,-7,-7,-21,-31,-18
1584990296.0192513,-5,-9,-7,0,-2,-11,-92,-3
1584990296.0192513,13,7,9,5,1,-2,-25,-16
1584990296.0205364,-32,-7,-5,1,2,6,37,6
1584990296.0205364,-19,-6,-2,-1,0,-1,24,21
1584990296.0417442,4,0,-1,-5,-4,-7,-43,-18
1584990296.0417442,15,5,2,4,0,2,0,19
1584990296.0431583,4,-1,0,-3,0,4,6,-17
1584990296.0431583,3,-3,1,0,-3,2,9,1
1584990296.0560997,1,5,3,4,4,2,7,3
1584990296.0560997,1,1,-3,-1,2,1,2,0
1584990296.0569475,-2,0,1,0,2,1,-3,3
1584990296.0569475,-1,0,-2,2,0,4,3,0
1584990296.0792568,-1,2,9,-1,1,1,-34,2
1584990296.0792568,-1,5,3,1,2,-5,1,-8
1584990296.0801926,-3,-9,-7,-3,-2,-11,-1,2
1584990296.0801926,1,2,7,-1,-3,1,-16,-5
1584990296.1024044,0,2,0,1,-2,-4,1,11
1584990296.1024044,-1,-3,-9,-1,1,1,9,-1
1584990296.1036258,-1,1,0,0,0,-2,19,-7
1584990296.1036258,1,-5,4,1,2,0,-14,16
1584990296.1161113,-2,12,4,0,-1,-6,-16,-1
1584990296.1161113,-2,-3,-5,-4,-3,-8,-9,2
1584990296.1174235,0,-5,-8,1,-3,0,17,-3
1584990296.1174235,-2,-5,1,-1,1,-1,-9,-1
1584990296.1405303,1,0,-3,3,-3,0,12,-8
1584990296.1405303,1,2,-1,4,-3,0,-4,14
1584990296.1418724,-1,-1,6,-1,-1,-5,-11,-13
1584990296.1418724,0,-3,-4,-1,-2,2,13,4
1584990296.1608474,3,1,1,0,0,2,2,2
1584990296.1608474,0,1,-5,-4,0,-3,-7,1
1584990296.16861,0,-8,2,-3,0,-4,-52,-7
1584990296.16861,-2,1,2,0,-2,-3,30,0
1584990296.1767936,-4,5,2,3,2,-2,4,16
1584990296.1767936,-1,0,-1,2,-5,1,2,1
1584990296.178061,-1,-3,-4,-4,-7,0,9,4
1584990296.178061,3,-2,-3,-1,0,-2,1,6
1584990296.1993039,-3,8,4,4,3,0,-2,5
1584990296.1993039,-3,1,-2,-4,1,-2,-10,-7
1584990296.2006438,0,-10,-1,0,-5,1,-14,-5
1584990296.2006438,3,12,6,3,0,-2,0,1
1584990296.2217476,0,1,-9,-3,6,1,2,3
1584990296.2217476,4,-9,-4,-1,0,-3,3,3
1584990296.2230268,-1,16,6,3,-1,-3,0,2
1584990296.2230268,-2,-12,-6,-4,0,-1,1,-1
1584990296.2360978,1,-5,-7,-5,1,3,26,0
1584990296.2360978,-3,-2,-4,0,1,-1,-40,-1
1584990296.2373827,0,0,11,4,0,-8,-3,-6
1584990296.2373827,1,-2,-3,-2,-2,1,7,3
1584990296.2667835,1,4,0,-2,0,0,9,0
1584990296.2667835,0,-1,1,0,0,0,-9,-3
1584990296.268046,2,0,2,0,-3,-2,-4,5
1584990296.268046,-1,-4,-2,0,0,-2,4,5
1584990296.288388,-3,-4,-5,-2,1,0,-3,-13
1584990296.288388,-3,-2,0,2,2,0,-6,-3
1584990296.2973943,0,2,6,2,1,-5,7,6
1584990296.2973943,1,2,-1,0,3,-1,-1,-3
1584990296.2990777,3,-7,-5,-1,-1,0,-4,-1
1584990296.2990777,-3,4,1,-2,-2,0,-3,-6
1584990296.3001382,3,1,-2,5,-2,1,2,0
1584990296.3001382,-6,-5,-5,-3,1,1,1,-2
1584990296.3192945,3,-8,-2,-2,0,-2,-7,-3
1584990296.3192945,7,7,10,6,-4,1,4,5
1584990296.320566,1,-1,2,0,1,0,1,0
1584990296.320566,-3,1,-3,-1,2,1,6,2
1584990296.3418078,-1,-3,-5,-3,-3,0,-4,-2
1584990296.3418078,-4,-3,-5,-3,1,-6,-2,-1
1584990296.3432093,-2,-3,2,-5,3,1,4,-1
1584990296.3432093,1,-6,1,0,0,-1,-1,-3
1584990296.364354,0,-1,-7,-3,0,0,3,0
1584990296.364354,3,9,9,3,-2,-1,1,0
1584990296.3657265,-1,-6,-4,0,-3,-1,-1,2
1584990296.3657265,1,1,-3,-1,-3,0,-7,-2
1584990296.3797307,0,-5,-4,-1,2,0,-6,1
1584990296.3797307,-4,2,-2,-1,-3,-3,3,-3
1584990296.3809364,-1,-6,-5,-5,-1,-2,5,0
1584990296.3809364,-2,-8,3,2,0,-1,-5,1
1584990296.409292,-1,7,9,-3,-1,-6,0,-2
1584990296.409292,-3,1,-4,-1,-3,1,-1,-3
1584990296.410199,-1,-7,-6,-1,-1,-1,1,-1
1584990296.410199,-3,-2,-5,1,-2,2,-1,0
1584990296.415999,-1,1,-1,0,-2,2,2,5
1584990296.415999,0,-6,-7,-1,0,-2,0,-4
1584990296.4235759,2,-3,0,-3,-2,-2,2,-1
1584990296.4235759,-1,13,12,1,-3,3,1,-1
1584990296.4392724,0,-1,-1,-2,0,1,0,-2
1584990296.4392724,-4,-1,-4,-2,0,0,3,-3
1584990296.4401677,1,-6,-3,1,0,-2,-4,-2
1584990296.4401677,-1,7,7,-2,-1,-3,1,-1
1584990296.4617646,-1,-2,-2,-1,1,1,1,2
1584990296.4617646,-2,-1,-5,-1,-1,0,-1,2
1584990296.4633605,1,-6,-1,-1,2,0,3,0
1584990296.4633605,-2,-3,6,0,0,2,-3,0
1584990296.4842646,2,3,-3,-2,-2,-3,-2,4
1584990296.4842646,1,-2,-2,-3,1,1,-1,0
1584990296.4855895,1,0,2,-2,1,-1,-1,-1
1584990296.4855895,-2,-10,-7,-3,-3,1,-1,-1
1584990296.499893,1,3,7,5,5,-2,-3,0
1584990296.499893,2,2,-2,0,-1,0,2,1
1584990296.5011077,-4,-9,-3,-4,-1,-2,2,6
1584990296.5011077,-1,-2,4,1,0,1,1,-5
1584990296.5217428,0,0,-7,-1,-1,-1,-5,0
1584990296.5217428,2,-4,0,0,-1,1,-4,0
1584990296.5231197,4,10,13,4,-2,1,-1,0
1584990296.5231197,-5,-5,2,2,5,0,-1,3
1584990296.5447102,1,0,-5,4,2,1,2,1
1584990296.5447102,-1,-9,-10,-2,-5,0,-1,0
1584990296.5456057,0,2,1,-3,-7,-1,0,2
1584990296.5456057,8,-4,-5,-4,-1,2,1,0
1584990296.5592847,-10,1,1,-3,-2,-5,-2,-5
1584990296.5592847,6,-1,3,1,-3,-1,3,-1
1584990296.5602062,-19,-3,2,2,-1,0,-4,-4
1584990296.5602062,-19,-2,1,-1,-1,-3,1,-2
1584990296.581646,-13,-7,-7,-1,0,4,0,-7
1584990296.581646,18,4,11,1,-1,-25,-7,-13
1584990296.5833569,11,-2,-5,-5,-1,18,13,9
1584990296.5833569,10,-5,-6,-7,0,-8,-4,8
1584990296.6042342,9,3,1,1,-2,-1,-1,4
1584990296.6042342,-19,-2,2,-2,-3,-1,-2,-2
1584990296.605549,-13,0,1,-2,-3,25,-3,-17
1584990296.605549,12,-2,-8,-2,-2,-30,16,-3
1584990296.6192868,-2,-1,-1,1,-1,-2,-19,5
1584990296.6192868,-1,5,0,-1,-2,-7,-16,1
1584990296.6206236,-1,-9,-3,2,7,28,-7,3
1584990296.6206236,-22,2,4,-2,-11,-44,2,-2
1584990296.6419165,13,-4,-1,0,-1,-4,6,-1
1584990296.6419165,-7,-1,-2,-3,0,10,0,-3
1584990296.6431577,47,1,-1,-1,-2,10,15,17
1584990296.6431577,-56,-9,0,1,0,2,-5,15
1584990296.6642807,-11,7,2,1,-4,-15,-16,-9
1584990296.6642807,37,-2,-5,-3,1,4,3,12
1584990296.665647,-100,-15,-7,-5,-4,1,-2,-42
1584990296.665647,53,6,-3,1,-3,3,10,42
1584990296.6799183,51,8,7,5,3,-1,4,30
1584990296.6799183,-35,-9,-8,-6,-7,-11,-12,-46
1584990296.6811028,-36,8,4,0,2,11,0,11
1584990296.6811028,29,-7,-5,2,-4,15,6,15
1584990296.7017825,9,-6,-6,-4,-7,-43,-9,4
1584990296.7017825,-3,-2,-5,-2,1,2,1,-26
1584990296.7034225,-34,0,2,1,-1,12,-3,-3
1584990296.7034225,-12,1,2,-2,1,-4,-3,18
1584990296.7242932,-5,-6,-7,-1,-3,-3,1,-14
1584990296.7242932,-4,-6,-1,-2,3,19,-8,-62
1584990296.7256348,-17,3,2,-3,8,-7,0,9
1584990296.7256348,-20,3,6,2,-1,-6,7,27
1584990296.739274,15,-9,-7,-1,-5,-11,-3,-10
1584990296.739274,-35,-1,1,-6,-8,-40,-7,-53
1584990296.7406707,-92,-17,-5,0,4,26,-1,-34
1584990296.7406707,8,4,0,1,-2,-22,-11,-27
1584990296.7617626,3,12,3,6,0,1,-3,-10
1584990296.7617626,3,1,-5,-3,-3,3,9,21
1584990296.7631595,-3,6,6,-3,0,-3,2,9
1584990296.7631595,-5,-10,-7,-3,0,21,14,34
1584990296.7847202,28,8,0,-4,-7,-20,-27,-8
1584990296.7847202,-46,-24,-13,-5,-2,16,-13,-96
1584990296.7860432,51,-5,-7,-5,-13,6,-6,34
1584990296.7860432,-28,5,7,3,11,31,24,40
1584990296.7992213,-47,6,5,3,0,2,1,-49
1584990296.7992213,51,7,-5,-1,7,19,12,37
1584990296.8000872,48,0,-4,-1,2,23,-7,-36
1584990296.8000872,-1,-12,-6,-8,-4,18,0,20
1584990296.8223681,19,5,3,2,1,11,-5,26
1584990296.8223681,7,4,2,4,2,41,-5,-72
1584990296.8238547,50,-2,-2,-7,-10,-75,13,-8
1584990296.8238547,-54,-3,-1,0,-3,-13,-22,-31
1584990296.8443239,-9,6,-4,2,9,-10,15,43
1584990296.8443239,4,6,7,5,9,66,-18,-64
1584990296.8458152,9,-16,-21,-19,4,-9,-18,-95
1584990296.8458152,13,12,15,14,1,-28,6,44
1584990296.858571,-23,9,4,1,-37,9,9,15
1584990296.858571,19,10,0,5,8,-19,-25,119
1584990296.8595355,21,25,4,2,-14,39,32,40
1584990296.8595355,18,-37,7,-8,14,-96,-58,-128
1584990296.8824365,-35,33,6,7,-3,-14,21,43
1584990296.8824365,25,16,-1,1,-9,-43,21,127
1584990296.8837543,7,-37,-18,-17,-73,-8,-7,-128
1584990296.8837543,-128,-14,-9,10,84,51,-22,102
1584990296.9046476,-28,4,6,2,5,-29,11,-15
1584990296.9046476,58,6,-2,-3,-14,-2,4,-2
1584990296.9059055,116,-4,-15,-6,-11,-44,23,127
1584990296.9059055,58,-19,-6,-7,-47,-31,-42,-128
1584990296.918555,-128,-16,-5,-5,-2,3,34,15
1584990296.918555,-66,2,-3,-4,47,9,-15,-28
1584990296.9198372,0,-9,-2,6,12,6,14,28
1584990296.9198372,7,16,0,0,25,31,31,127
1584990296.9417114,-26,-11,1,-7,-30,-59,-49,-128
1584990296.9417114,64,8,0,9,30,28,2,110
1584990296.9431632,-128,4,14,15,0,-7,34,30
1584990296.9431632,79,-35,-15,-12,-39,9,-16,-43
1584990296.97185,112,16,-7,6,67,-12,-4,-23
1584990296.97185,-19,9,9,10,-105,89,49,21
1584990296.9736226,0,18,1,11,108,-31,-6,27
1584990296.9736226,22,2,0,-2,-5,-7,0,-11
1584990296.9789002,-106,-26,-7,-8,-51,-18,-36,-128
1584990296.9789002,127,-4,-18,-18,-43,-11,-31,-128
1584990296.979989,-6,9,11,8,16,3,5,127
1584990296.979989,-128,-50,-17,-16,-20,-34,-35,-128
1584990297.0103884,58,16,9,4,-6,-17,22,81
1584990297.0103884,52,17,-1,-3,2,7,-36,38
1584990297.01131,58,4,4,-2,0,36,2,6
1584990297.01131,-128,-4,4,2,2,-37,0,18
1584990297.0233436,-86,-31,-15,-4,5,2,-2,-58
1584990297.0233436,19,22,5,8,4,6,21,24
1584990297.0317192,127,-6,-17,-14,-12,-38,-34,-80
1584990297.0317192,-128,-23,-6,-12,-78,-28,-1,-30
1584990297.0385678,100,11,-4,7,90,61,26,9
1584990297.0385678,110,17,6,4,15,-20,3,48
1584990297.039833,-128,-41,-7,-9,-43,18,-20,14
1584990297.039833,1,1,2,9,25,-10,-47,21
1584990297.061711,45,15,-12,-12,127,17,14,31
1584990297.061711,5,-15,-5,-5,-33,-25,1,-44
1584990297.06329,-10,19,14,4,-23,-25,33,54
1584990297.06329,66,-5,-4,-8,-33,-6,11,31
1584990297.1005833,-68,9,1,1,-21,-27,9,98
1584990297.1005833,-128,-30,-15,-8,43,24,-22,-128
1584990297.101851,39,-2,1,-5,-1,20,15,34
1584990297.101851,-8,9,9,5,-3,5,4,33
1584990297.1027954,71,34,17,12,12,15,32,45
1584990297.1027954,7,-16,-3,-2,4,11,9,25
1584990297.1060343,-16,-14,-13,-5,-2,-8,-20,-15
1584990297.1060343,127,17,6,0,2,-4,-2,-18
1584990297.1310446,-116,9,5,3,2,-15,5,22
1584990297.1310446,-46,-1,-9,-2,27,28,20,23
1584990297.13242,-51,-16,-7,-1,-1,5,6,-31
1584990297.13242,42,17,1,7,-30,4,4,35
1584990297.1450756,127,19,-6,3,44,5,-39,-33
1584990297.1450756,-13,-14,-2,-7,-2,-19,-23,-7
1584990297.1461225,1,5,6,3,10,12,15,27
1584990297.1461225,-43,-3,-2,1,2,-27,14,27
1584990297.1586504,40,-6,-10,-4,3,-11,-22,-69
1584990297.1586504,16,-13,-8,-4,27,-6,-9,-40
1584990297.1600475,15,-4,0,-9,-21,31,6,12
1584990297.1600475,61,-3,3,1,-4,-10,-43,10
1584990297.181781,-82,11,2,7,38,6,26,78
1584990297.181781,2,-9,3,2,-4,-4,-14,-52
1584990297.1842878,56,13,11,3,-12,-1,13,23
1584990297.1842878,-36,-6,-9,-2,6,-3,-49,36
1584990297.211692,127,-4,-7,-3,-8,-1,9,37
1584990297.211692,-17,-1,2,5,0,-35,-13,-19
1584990297.2125647,40,7,6,-4,-17,8,4,-34
1584990297.2125647,-57,-7,-2,-3,9,0,3,35
1584990297.2185564,35,0,-3,4,1,32,-3,-38
1584990297.2185564,-6,3,6,0,-7,-50,-12,-14
1584990297.2193198,11,7,5,1,19,43,8,20
1584990297.2193198,-2,-9,-10,-7,-28,-37,-1,2
1584990297.2424989,-7,-7,-3,4,14,4,-12,-17
1584990297.2424989,5,7,3,2,-4,-1,2,8
1584990297.24348,-65,-2,5,4,-2,-39,7,25
1584990297.24348,61,-8,1,-5,-26,35,3,36
1584990297.264304,-128,-25,4,-3,6,-9,-34,-109
1584990297.264304,79,6,-5,-5,-5,-11,-14,-8
1584990297.265588,45,-12,-16,-8,-6,-4,-2,-66
1584990297.265588,16,2,-2,0,-1,3,8,70
1584990297.2785738,-6,6,6,0,4,4,-7,-50
1584990297.2785738,-6,5,0,3,0,6,8,15
1584990297.2798991,-10,-2,1,0,0,1,1,-1
1584990297.2798991,-9,-11,-3,-4,1,5,-5,10
1584990297.3016844,40,1,-1,-2,0,7,-4,-13
1584990297.3016844,-19,-4,-3,0,-4,-1,-6,7
1584990297.3033354,-6,-3,-3,0,2,2,3,5
1584990297.3033354,-4,0,3,3,1,1,10,24
1584990297.3242807,-1,6,-1,3,-3,-1,-3,-3
1584990297.3242807,-24,-6,-9,-8,7,-3,-10,-13
1584990297.3260605,-17,-4,0,-2,-2,-1,3,7
1584990297.3260605,60,3,8,3,0,-4,-2,-3
1584990297.3379307,-37,-3,-4,-4,0,-18,0,-4
1584990297.3379307,-6,6,-9,1,1,12,8,13
1584990297.346766,31,-7,-4,-3,-4,-5,4,27
1584990297.346766,-65,4,10,1,1,0,-10,-31
1584990297.3624613,9,6,2,3,2,0,-2,11
1584990297.3624613,26,-7,-1,-6,-4,2,6,8
1584990297.3642085,46,5,2,1,2,1,2,8
1584990297.3642085,-54,-14,-5,-7,-3,-5,-6,2
1584990297.3842244,-20,10,2,1,0,4,2,-10
1584990297.3842244,0,4,-2,0,-3,1,4,38
1584990297.3856409,-19,-10,-2,-2,-2,3,2,-34
1584990297.3856409,4,4,7,3,2,0,-3,2
1584990297.397866,-5,6,-6,3,-4,-5,7,-6
1584990297.397866,9,-4,-4,-1,-2,-2,-16,11
1584990297.4067645,14,0,9,-3,0,-7,-5,-28
1584990297.4067645,-4,2,4,0,-2,-1,-6,17
1584990297.4217174,3,4,1,0,2,1,-1,-6
1584990297.4217174,2,0,-3,2,0,1,1,1
1584990297.4235888,2,2,2,-4,1,2,4,1
1584990297.4235888,23,-5,-6,0,-1,3,4,4
1584990297.4448817,-46,-7,-6,-1,-3,-5,-7,-19
1584990297.4448817,-10,7,4,-1,0,-3,4,-2
1584990297.4466658,16,0,3,-2,0,0,4,4
1584990297.4466658,-5,1,-2,2,1,3,-2,-5
1584990297.4680576,27,7,0,3,-2,-2,5,7
1584990297.4680576,-27,-12,-4,-4,-2,-6,-12,-13
1584990297.4695764,52,-3,-5,-4,-2,-1,-16,-18
1584990297.4695764,6,8,15,-2,1,2,7,8
1584990297.4898453,-3,0,1,9,3,3,25,9
1584990297.4898453,-3,-3,-2,1,-3,0,0,13
1584990297.4916527,-2,6,7,1,-5,-2,-20,-13
1584990297.4916527,-1,-11,-12,-2,-6,1,10,-7
1584990297.5042677,9,-3,-7,0,0,0,-28,0
1584990297.5042677,-3,2,10,4,0,2,33,2
1584990297.5060842,3,3,4,-2,1,3,8,7
1584990297.5060842,1,-2,-6,0,1,1,10,-7
1584990297.5179305,0,2,6,-1,0,-1,-13,8
1584990297.5179305,2,12,2,0,2,0,19,-2
1584990297.5267613,0,-8,-4,-3,-1,1,-14,-5
1584990297.5267613,-3,-3,-5,1,0,-5,-5,-4
1584990297.541713,2,11,1,1,0,11,42,1
1584990297.541713,1,-1,5,-1,2,5,-28,5
1584990297.5438359,0,-2,0,-3,-7,-14,13,-1
1584990297.5438359,2,-3,-1,3,-3,-7,-25,-8
1584990297.5642152,-3,3,2,2,-1,-2,-10,0
1584990297.5642152,2,-2,-1,-2,3,6,10,2
1584990297.5659113,-4,-5,-2,-1,-2,2,10,1
1584990297.5659113,0,0,1,3,-2,-2,5,4
1584990297.5778074,2,2,2,0,-1,0,5,0
1584990297.5778074,1,-1,-7,-4,-1,-1,-1,-1
1584990297.586737,1,1,2,2,-3,-1,1,-2
1584990297.586737,1,4,3,1,1,1,1,-1
1584990297.6025467,0,5,-3,0,-2,-1,-13,4
1584990297.6025467,-4,3,7,5,-2,-1,5,-15
1584990297.6043782,1,-5,-8,-3,-3,-1,5,5
1584990297.6043782,-2,-5,-4,-3,0,2,13,-10
1584990297.6246355,-2,3,-2,0,-2,-2,-29,3
1584990297.6246355,6,5,0,1,-1,-2,17,9
1584990297.6303544,-1,-6,6,2,2,1,-9,-10
1584990297.6303544,-2,-3,0,-1,2,1,9,5
1584990297.654262,0,-3,-2,-1,0,1,-13,1
1584990297.654262,4,-3,-5,1,0,1,10,3
1584990297.6557326,-4,-5,-1,-1,-4,5,15,-11
1584990297.6557326,-1,1,-4,-2,2,-4,-30,2
1584990297.6623304,-4,-2,-2,2,-3,-3,3,1
1584990297.6623304,4,1,0,1,1,-1,6,2
1584990297.6635373,-3,-4,-1,-3,2,3,5,-1
1584990297.6635373,-1,-3,-1,-2,-1,1,2,0
1584990297.684229,4,2,-3,-3,-4,3,-4,5
1584990297.684229,-2,4,-2,2,-1,-2,5,-3
1584990297.6856935,2,-4,1,0,0,-3,-7,1
1584990297.6856935,-3,3,-6,-1,-2,-3,-6,1
1584990297.7073705,2,1,-2,2,1,0,0,1
1584990297.7073705,-1,-10,-8,1,-1,-1,-4,-2
1584990297.709279,1,10,15,1,0,1,-4,-1
1584990297.709279,-2,11,7,1,1,2,1,0
1584990297.722906,-1,2,-8,-5,1,1,-7,5
1584990297.722906,-1,-6,-9,-1,0,1,-6,-1
1584990297.7247822,-4,-7,0,-1,1,1,11,-2
1584990297.7247822,-1,-1,-5,-1,-5,3,-8,0
1584990297.7442002,1,7,10,1,-1,-3,1,-1
1584990297.7442002,-2,-3,0,0,-1,-5,-2,-2
1584990297.7458882,-1,-5,-4,-3,1,1,1,-2
1584990297.7458882,-2,-3,0,-1,-1,-2,2,-1
1584990297.767186,-1,2,-4,-3,-3,2,-2,0
1584990297.767186,0,0,2,-2,-1,-2,3,1
1584990297.7686138,0,-3,-1,-3,-2,2,3,2
1584990297.7686138,2,-2,-4,-4,1,-3,-1,0
1584990297.7817323,-1,2,-1,-1,-2,-3,-2,1
1584990297.7817323,-2,-3,1,0,0,0,-1,1
1584990297.7834578,-2,-3,3,-1,0,-1,2,-2
1584990297.7834578,0,2,5,1,-1,-3,-5,-1
1584990297.8042436,0,0,-3,2,-2,4,0,-1
1584990297.8042436,0,-4,-1,-1,1,-1,-1,0
1584990297.80601,-3,2,2,1,5,0,2,-1
1584990297.80601,0,-1,0,1,1,1,1,-1
1584990297.8267162,1,-2,-3,-2,-2,0,0,-3
1584990297.8267162,2,-2,-3,-1,-2,-2,-2,0
1584990297.8284125,3,1,3,0,-2,2,3,0
1584990297.8284125,-3,-6,-1,-3,1,-2,1,-4
1584990297.8426266,2,-3,-8,-1,1,-2,-2,-2
1584990297.8426266,-5,-2,-1,-2,-3,-2,1,-3
1584990297.8445222,-1,-1,-1,-3,1,2,-3,-1
1584990297.8445222,-1,-3,-1,-2,1,2,2,-1
1584990297.8642554,0,3,-3,0,-1,-3,0,3
1584990297.8642554,-3,-6,-3,-3,0,-1,2,0
1584990297.8660362,0,1,3,2,0,-1,-1,-3
1584990297.8660362,-1,3,-1,0,0,2,-3,3
1584990297.8867598,2,0,-1,-2,-5,-1,-3,2
1584990297.8867598,-1,-6,-8,-1,-1,0,-2,-2
1584990297.8881516,0,2,-6,-3,1,-1,-1,-1
1584990297.8881516,0,-4,-2,-4,-2,-5,1,-3
1584990297.9003992,2,-1,1,2,-1,-4,-1,0
1584990297.9003992,3,6,0,1,0,-1,5,1
1584990297.9092612,-1,-5,7,1,1,1,2,-2
1584990297.9092612,-2,4,1,-1,0,2,-6,1
1584990297.9240558,0,-3,-1,3,-2,0,1,0
1584990297.9240558,2,0,-4,0,-3,-2,-1,-2
1584990297.9317522,1,-4,-4,-1,-1,0,0,0
1584990297.9317522,-4,-3,-1,2,0,-2,-1,-2
1584990297.9466941,3,2,7,2,0,-2,-3,-1
1584990297.9466941,2,3,9,0,0,-1,2,-10
1584990297.9483747,-2,-7,-6,2,-1,-1,-1,-1
1584990297.9483747,1,3,-2,-4,0,-2,-2,0
1584990297.9603462,-1,-2,-7,-4,-2,1,1,-1
1584990297.9603462,-1,-1,5,-3,0,0,-4,-3
1584990297.9693518,1,-1,-1,2,1,4,1,0
1584990297.9693518,0,-3,-3,-1,-1,0,-2,1
1584990297.984197,-3,-6,-5,1,1,2,-6,-2
1584990297.984197,-1,-4,-2,-1,-1,-1,3,0
1584990297.9856505,2,-2,0,-3,0,-7,-5,-3
1584990297.9856505,-2,0,1,-1,0,-5,-2,-3
1584990298.0066743,0,1,-1,4,-4,-1,1,-2
1584990298.0066743,-2,3,-1,0,-4,5,3,-1
1584990298.008296,1,-6,0,-3,-3,-3,-3,-1
1584990298.008296,-2,5,-1,0,2,-1,0,0
1584990298.020325,-1,-2,-6,2,-1,2,-1,-2
1584990298.020325,2,13,10,6,0,2,-1,-1
1584990298.0292811,-1,-6,1,-3,-2,1,-1,1
1584990298.0292811,1,1,-7,-2,1,-2,3,-3
1584990298.0441933,-1,-5,-4,-2,0,-3,-1,-1
1584990298.0441933,0,-4,3,-3,-1,-1,0,-1
1584990298.0458312,1,2,8,3,3,-2,1,1
1584990298.0458312,1,-2,-2,1,0,-4,1,0
1584990298.0667095,-1,5,0,2,-1,-2,-2,1
1584990298.0667095,-3,0,-3,-2,-3,-4,-6,0
1584990298.0680876,-3,-3,-2,-4,-2,-1,2,0
1584990298.0680876,-6,-1,-3,-6,-1,2,-1,-3
1584990298.0892825,-4,-4,-3,0,-3,-1,0,0
1584990298.0892825,4,6,-1,-1,-2,-1,1,-2
1584990298.0912158,3,-4,1,-2,2,-1,0,8
1584990298.0912158,3,0,5,1,2,0,2,-2
1584990298.104249,1,-1,-6,1,1,-3,-3,-2
1584990298.104249,4,-2,-5,1,0,-5,1,-3
1584990298.1060455,-3,0,4,-3,1,-2,2,3
1584990298.1060455,6,-3,-6,2,2,4,0,-4
1584990298.1267047,2,3,5,1,0,-3,-2,10
1584990298.1267047,-4,-4,-2,-3,0,0,-3,2
1584990298.1285048,-4,0,0,1,-2,-2,-7,-25
1584990298.1285048,-3,-1,-4,-2,-3,-2,-1,7
1584990298.1402802,-1,1,-1,2,0,1,3,7
1584990298.1402802,12,-1,0,2,-1,1,1,-3
1584990298.149323,-24,-5,-1,0,1,-3,-4,-8
1584990298.149323,-10,-2,-4,-3,-1,20,1,8
1584990298.164195,-7,-6,-11,-3,-5,-35,-7,-6
1584990298.164195,7,8,14,2,-2,1,3,15
1584990298.165889,2,-2,-1,0,-1,3,-1,0
1584990298.165889,2,1,3,2,1,-1,-1,-7
1584990298.18669,-4,-5,-7,-5,-6,-1,2,5
1584990298.18669,-2,0,-3,2,3,0,1,2
1584990298.1880262,-1,1,-1,-5,-1,0,-1,5
1584990298.1880262,-2,-3,1,2,-1,1,1,-1
1584990298.209205,4,2,-3,-3,-1,-3,0,-2
1584990298.209205,-3,2,6,2,0,-1,0,-2
1584990298.2108955,1,-6,-2,-2,1,0,-3,-1
1584990298.2108955,2,-3,-1,-5,1,-3,6,17
1584990298.2242057,-7,0,-5,0,-3,2,-2,-20
1584990298.2242057,2,-7,-1,-1,-3,-1,-1,5
1584990298.2258806,-1,-5,-4,-1,-1,-3,2,4
1584990298.2258806,1,3,3,-2,4,0,-2,0
1584990298.2467396,2,7,4,2,5,-3,-5,2
1584990298.2467396,10,2,1,0,1,1,1,7
1584990298.248471,-5,-5,-11,-3,2,3,2,2
1584990298.248471,-17,-10,-6,-3,-2,-3,0,-6
1584990298.2603338,14,3,5,6,4,-1,2,-2
1584990298.2603338,3,-2,-7,-1,0,-1,-3,14
1584990298.2692661,-8,-5,-1,-1,-1,1,-3,-16
1584990298.2692661,22,4,2,1,1,-1,3,10
1584990298.2841885,-5,-10,-5,-3,-1,4,-3,6
1584990298.2841885,-33,-11,-3,-5,0,-3,-1,-6
1584990298.2856257,-26,-1,-1,0,2,0,-3,-4
1584990298.2856257,20,2,0,1,1,-1,0,-3
1584990298.3066823,21,6,-8,2,-2,2,3,20
1584990298.3066823,-20,-8,-4,-4,-4,-3,-1,-14
1584990298.3085883,16,5,7,0,0,4,0,15
1584990298.3085883,7,-1,-5,-3,-1,3,-1,3
1584990298.3290887,-35,-6,-4,-1,0,-1,-2,-20
1584990298.3290887,18,0,-3,2,-3,-6,2,9
1584990298.3366942,24,1,1,3,3,2,5,26
1584990298.3366942,-49,-14,-2,-5,0,-2,-11,-49
1584990298.344613,19,2,-2,-1,0,0,1,10
1584990298.344613,0,3,-2,-3,2,0,3,9
1584990298.350413,10,-1,-2,-3,-3,-2,1,18
1584990298.350413,27,-4,-5,-2,-2,4,-7,-6
1584990298.3666925,25,12,11,3,3,-7,7,9
1584990298.3666925,-46,3,-4,1,0,-8,1,-1
1584990298.368159,68,-3,-6,0,2,0,-2,16
1584990298.368159,-4,1,-4,2,1,4,-2,-6
1584990298.380355,7,-1,5,-4,-10,-18,1,10
1584990298.380355,5,2,0,2,-1,11,2,1
1584990298.3892105,18,6,-1,0,-1,1,8,9
1584990298.3892105,-32,-2,2,2,1,-6,-3,1
1584990298.404293,-6,1,0,-1,0,1,-3,-10
1584990298.404293,50,9,0,3,0,-2,5,18
