timestamp,emg1,emg2,emg3,emg4,emg5,emg6,emg7,emg8
1583443836.4862897,8,3,3,24,4,13,12,16
1583443836.4862897,1,-12,-31,8,14,3,5,7
1583443836.4979649,1,8,15,8,-6,-2,4,1
1583443836.4979649,-1,-2,1,-27,-21,-13,-8,-2
1583443836.5017555,-5,-3,8,19,9,0,-7,-12
1583443836.5017555,2,-3,-22,-69,-1,10,6,4
1583443836.5116,2,2,-7,-59,-6,-1,4,0
1583443836.5116,-6,-1,-3,-34,-15,-21,-15,-14
1583443836.5218008,-12,-8,-2,127,9,-2,-16,-21
1583443836.5218008,-1,5,0,-20,-6,-2,0,-4
1583443836.534464,-4,-3,-7,107,4,0,-6,-8
1583443836.534464,1,0,35,17,-1,2,3,6
1583443836.5449471,4,-2,-1,-73,-3,1,3,3
1583443836.5449471,1,5,-9,-56,-5,1,1,-5
1583443836.5586975,-4,1,-13,-32,-4,-1,-2,-6
1583443836.5586975,-1,-5,17,16,-7,-4,1,-2
1583443836.5659943,-1,-19,20,54,20,5,0,-1
1583443836.5659943,-3,-33,-4,-12,3,4,3,1
1583443836.5721428,-2,-41,35,38,12,9,0,-2
1583443836.5721428,-4,1,-23,-13,-8,-10,-1,-1
1583443836.5815158,-2,-7,42,-10,-1,-5,-4,0
1583443836.5815158,0,50,-1,2,-9,0,1,-3
1583443836.5945435,1,45,-31,-5,8,1,0,-5
1583443836.5945435,-5,27,-28,14,17,0,-10,-9
1583443836.6046536,3,20,-1,-24,15,-5,-6,-1
1583443836.6046536,-7,9,-66,-9,8,-7,-6,-11
1583443836.6184556,-6,1,-16,17,-14,-4,-4,-10
1583443836.6184556,0,-12,13,-91,-42,-6,3,0
1583443836.6249545,1,-16,20,-10,-52,-1,-3,0
1583443836.6249545,-5,-12,18,5,-9,5,-7,-7
1583443836.6317418,3,-6,0,-17,-9,-2,3,3
1583443836.6317418,1,-5,24,11,2,-4,-6,-1
1583443836.6411343,1,-7,-4,-13,-2,-3,3,2
1583443836.6411343,3,-1,2,-8,9,0,6,2
1583443836.654471,-3,-4,-9,9,18,9,-4,-6
1583443836.654471,-5,0,19,-4,-14,-16,-10,-8
1583443836.6644404,4,-9,7,-2,8,-3,1,6
1583443836.6644404,-14,1,16,-47,-42,-27,-19,-18
1583443836.678618,-6,-1,5,15,5,1,-6,-10
1583443836.678618,-7,-6,25,16,0,-5,-13,-12
1583443836.6850133,-1,4,30,-8,-24,-17,-12,-8
1583443836.6850133,-3,-1,-3,-1,2,-5,-4,-1
1583443836.6912353,-2,-3,-3,9,4,4,0,-4
1583443836.6912353,6,2,0,-3,-2,2,7,7
1583443836.700347,1,0,11,18,11,5,0,5
1583443836.700347,16,-11,-54,17,28,20,33,30
1583443836.7141287,-10,13,3,9,-5,-5,-10,-14
1583443836.7141287,1,1,10,-10,-7,-8,0,4
1583443836.7239716,-2,-9,-14,-20,-22,-13,-6,-4
1583443836.7239716,3,7,4,20,9,4,1,-5
1583443836.7378364,6,8,-2,21,25,22,16,15
1583443836.7378364,-5,-5,12,10,-2,-5,-2,-7
1583443836.7444572,3,0,2,-18,-40,-38,-13,-5
1583443836.7444572,-4,0,-5,-22,-30,-69,-11,-5
1583443836.7605135,10,15,-26,20,41,87,31,18
1583443836.7605135,7,3,24,52,91,65,19,10
1583443836.7658572,-12,-14,15,-21,-45,-128,-38,-16
1583443836.7658572,2,-8,51,116,127,127,20,5
1583443836.7747133,24,15,20,-23,-100,-92,3,30
1583443836.7747133,7,-10,15,127,127,127,61,18
1583443836.7847202,-27,-5,-31,-50,-128,-128,-40,-40
1583443836.7847202,3,-18,-31,-47,-128,-41,19,12
1583443836.7978687,16,34,-16,49,106,88,73,18
1583443836.7978687,-56,-31,-1,-79,-128,-29,-42,-93
1583443836.8045464,43,2,34,67,127,22,66,79
1583443836.8045464,39,45,-19,-14,-35,101,25,48
1583443836.820744,-58,-33,-16,-16,-128,-128,-96,-75
1583443836.820744,-7,-3,-9,-86,-79,127,17,-10
1583443836.8268511,-12,-1,2,-13,-39,-128,-55,-33
1583443836.8268511,0,-29,-21,-48,-10,127,50,25
1583443836.8345468,-3,9,-47,-36,-1,-49,-22,-29
1583443836.8345468,-4,-4,-38,-50,-72,-128,-41,7
1583443836.8443732,-5,6,-32,-51,-105,-128,-31,-16
1583443836.8443732,-2,-9,21,8,-114,-128,-53,-4
1583443836.8577416,7,-6,2,41,46,127,65,25
1583443836.8577416,-24,15,-31,-75,-46,-128,-53,-38
1583443836.8644826,45,23,61,24,40,95,29,40
1583443836.8644826,1,-19,-6,7,127,82,10,2
1583443836.8804324,-7,-21,-15,-51,-43,127,12,-9
1583443836.8804324,23,-20,30,108,127,127,96,49
1583443836.8858118,-14,-18,-10,-65,-72,-37,-32,-17
1583443836.8858118,14,9,-6,11,7,127,40,21
1583443836.8945687,-8,-9,-30,-39,27,-8,-23,-16
1583443836.8945687,3,4,-5,-3,-44,-49,-20,6
1583443836.904528,6,11,1,-29,-44,-101,-14,-10
1583443836.904528,-20,3,-55,-128,0,25,-26,-37
1583443836.9182343,-3,16,-26,-128,-46,117,5,-14
1583443836.9182343,-31,-10,11,-128,-128,-128,-89,-64
1583443836.9243925,5,-7,-29,127,70,127,101,34
1583443836.9243925,-20,-8,16,84,-90,-108,-62,-45
1583443836.9416435,-4,-2,-10,127,3,8,-31,-9
1583443836.9416435,11,2,-11,-75,13,-128,-5,19
1583443836.9476182,-3,-1,5,-54,-63,-1,-13,-17
1583443836.9476182,26,-17,22,-2,127,127,124,54
1583443836.9543738,-6,6,-5,-42,-9,-25,-12,-9
1583443836.9543738,-6,-5,-3,10,-30,-13,-22,-10
1583443836.9643667,3,-5,2,-62,-14,5,-2,7
1583443836.9643667,-2,1,-11,-36,-10,19,-5,-5
1583443836.9779804,1,0,-9,22,93,-51,-22,-7
1583443836.9779804,-9,-4,6,14,22,-76,-19,-12
1583443836.9851165,0,0,-12,-31,68,50,12,-4
1583443836.9851165,22,-2,50,-18,10,86,66,40
1583443837.0012999,0,1,-5,112,49,93,51,12
1583443837.0012999,-3,-6,8,-36,2,-63,-6,1
1583443837.0075052,37,-12,57,127,127,127,122,79
1583443837.0075052,-5,4,-25,-54,-42,-46,-15,-15
1583443837.0142274,-7,2,-6,14,-25,-109,-33,-20
1583443837.0142274,-7,-5,-11,-39,-79,-35,-17,-11
1583443837.0243,9,-6,5,-24,-5,65,13,12
1583443837.0243,-6,6,-1,-15,-1,-128,-37,-19
1583443837.0380938,0,-3,-22,62,21,11,30,11
1583443837.0380938,-3,-2,-15,-52,-53,-36,-13,-12
1583443837.0441053,6,-1,14,7,38,-9,-9,-2
1583443837.0441053,8,0,14,58,50,106,52,23
1583443837.0612838,4,1,-2,16,-12,10,6,6
1583443837.0612838,1,-5,-8,-90,-26,3,-1,2
1583443837.0674233,2,-1,21,123,90,10,3,5
1583443837.0674233,7,3,13,-13,62,20,11,9
1583443837.0750587,-7,7,-16,-4,-45,-8,-11,-15
1583443837.0750587,1,-2,20,86,59,36,21,10
1583443837.0848134,2,1,3,-5,10,-4,-6,-1
1583443837.0848134,1,2,-9,-8,-98,-4,-7,-3
1583443837.0976162,1,3,15,2,18,17,12,7
1583443837.0976162,0,-3,2,-15,5,5,2,4
1583443837.1047103,0,-4,-6,-11,-103,-4,-2,-6
1583443837.1047103,4,8,2,-5,-12,-2,-2,1
1583443837.1211877,-2,4,-13,-4,-11,-19,-10,-7
1583443837.1211877,-5,-28,-5,4,8,-8,-7,1
1583443837.127812,1,13,30,-5,-7,3,1,-3
1583443837.127812,4,-20,-9,10,3,4,12,14
1583443837.1349378,-1,-3,-1,-7,0,-2,0,-5
1583443837.1349378,-7,-40,-21,-17,-9,0,-4,-19
1583443837.1443524,7,12,9,1,16,14,4,1
1583443837.1443524,-3,16,24,-3,38,-4,4,12
1583443837.1584706,-11,-32,-24,-40,-16,-4,5,-3
1583443837.1584706,11,56,-17,87,11,-4,2,-8
1583443837.1643898,-6,-115,16,43,2,-18,-11,-17
1583443837.1643898,7,-21,32,-19,19,11,2,-30
1583443837.179935,5,52,8,-6,3,1,0,39
1583443837.179935,1,-62,-26,-36,-16,0,-5,-26
1583443837.182777,-1,-66,-49,3,3,7,2,23
1583443837.182777,-2,88,22,15,1,-6,3,-20
1583443837.193565,2,18,-25,-15,-2,-5,0,22
1583443837.193565,-5,-68,24,-20,1,7,7,2
1583443837.202497,-16,-7,-27,40,4,-2,-6,-9
1583443837.202497,0,-8,-1,-42,-6,-1,-5,-12
1583443837.2167678,3,3,-12,-8,-12,7,-2,-1
1583443837.2167678,0,-26,-23,-25,-12,-26,-8,-4
1583443837.2235658,5,-7,16,55,17,8,7,3
1583443837.2235658,0,29,2,0,-54,-4,-6,-3
1583443837.2474742,1,-10,3,14,35,2,2,-5
1583443837.2474742,2,-5,-1,-12,-9,-10,-3,-3
1583443837.2501829,-9,11,-19,-17,-6,-7,-2,1
1583443837.2501829,5,9,-7,7,-1,-1,-6,0
1583443837.2536192,-8,53,11,22,-1,2,4,-5
1583443837.2536192,-1,-16,-14,-7,0,1,-4,-7
1583443837.2625053,1,-29,23,36,13,-3,2,6
1583443837.2625053,6,5,9,-25,-13,11,9,4
1583443837.2768073,-4,13,4,19,-5,-6,-8,-3
1583443837.2768073,0,-4,4,-12,-2,-5,-4,0
1583443837.2835708,-1,-5,-3,-8,0,-6,-3,-1
1583443837.2835708,1,-1,-4,-5,13,-11,-9,-1
1583443837.3000367,-5,-1,-4,13,-22,-8,-3,-8
1583443837.3000367,10,0,9,-1,35,65,32,18
1583443837.3026943,-3,1,-4,-3,-11,-13,-5,-3
1583443837.3026943,-1,-1,-1,-8,-27,-39,-14,-5
1583443837.3136642,2,-1,11,22,46,99,28,8
1583443837.3136642,-1,-2,-1,-1,14,-7,-2,-2
1583443837.3225317,-4,0,-2,5,-2,-9,-6,0
1583443837.3225317,7,12,3,-8,-15,-7,1,5
1583443837.336815,-5,12,19,11,-16,-9,-8,-15
1583443837.336815,-5,-23,-44,8,25,4,-1,-10
1583443837.3442767,0,-20,12,-4,-1,4,-7,-4
1583443837.3442767,-6,-44,-37,3,13,-6,-3,-7
1583443837.3605075,7,-17,-22,2,1,3,1,2
1583443837.3605075,0,5,19,-46,-20,-12,-7,-6
1583443837.3652499,19,11,-28,3,3,0,6,5
1583443837.3652499,11,-39,22,-12,-8,-7,-7,2
1583443837.374527,9,-58,-54,-8,-14,-3,-2,2
1583443837.374527,-11,-17,15,18,-2,-8,-9,-6
1583443837.3845358,7,18,12,6,-11,-10,1,2
1583443837.3845358,2,2,-35,-19,13,-10,-18,-8
1583443837.397575,6,5,-7,-5,-7,1,12,9
1583443837.397575,-8,-2,11,-6,-16,-15,-18,-17
1583443837.404254,-6,3,-12,-13,-17,-14,-4,-3
1583443837.404254,10,9,16,-17,-22,-8,-3,2
1583443837.4214337,-5,21,-8,-19,-19,-4,-3,-3
1583443837.4214337,1,-7,1,-4,-5,-9,-3,0
1583443837.4278984,6,-2,-1,-15,-11,-9,3,3
1583443837.4278984,1,5,16,-2,-20,-1,-6,-3
1583443837.4340599,-41,-82,-40,-11,-15,-15,-18,-18
1583443837.4340599,-27,55,-59,-57,-30,-14,-7,-12
1583443837.4444087,1,17,-27,-13,0,4,1,0
1583443837.4444087,-6,23,9,0,-6,-9,-12,-15
1583443837.458135,-24,-32,-29,-10,31,14,2,-4
1583443837.458135,18,31,-8,-8,-5,-3,-5,-2
1583443837.4644046,9,-14,1,-12,-27,-8,-12,-3
1583443837.4644046,2,-10,-10,-38,-6,1,-7,-11
1583443837.4815896,-6,50,-3,-74,-37,-4,1,-5
1583443837.4815896,-4,-5,19,36,-16,-2,-3,-5
1583443837.4877717,-4,-1,-6,52,34,2,-6,-11
1583443837.4877717,3,-1,-30,-80,-46,-13,1,-1
1583443837.494616,-3,1,-5,16,-16,-11,-5,-9
1583443837.494616,-7,-6,9,4,0,-8,-5,3
1583443837.5037777,5,4,20,31,12,45,7,3
1583443837.5037777,-30,-13,-12,82,30,-13,-23,-31
1583443837.5263143,1,5,9,37,4,-12,2,3
1583443837.5263143,-2,-3,-1,-4,-48,-7,-4,-5
1583443837.5326777,-2,-9,-9,-35,22,-17,-15,-6
1583443837.5326777,5,2,0,-31,-51,-61,-5,5
1583443837.540989,-2,-1,28,106,127,127,28,0
1583443837.540989,-15,-6,-14,88,11,-61,-20,-23
1583443837.54752,3,-1,-19,-70,29,-22,-6,3
1583443837.54752,3,3,7,4,9,-24,-3,-1
1583443837.5550966,7,0,2,-53,-10,39,12,13
1583443837.5550966,1,-4,0,-31,-43,6,-6,0
1583443837.5640113,-18,2,10,63,35,24,-3,-21
1583443837.5640113,4,5,-9,-29,-27,3,-1,3
1583443837.5776658,-8,1,0,55,-30,17,13,-7
1583443837.5776658,9,-9,18,-12,-25,5,5,7
1583443837.5841446,14,13,20,13,-29,23,17,19
1583443837.5841446,-2,16,15,-89,40,9,-4,-7
1583443837.6006763,-13,-7,-18,14,-24,-11,2,0
1583443837.6006763,9,1,11,-77,1,-17,-5,17
1583443837.6078143,6,-3,-18,127,40,117,31,9
1583443837.6078143,-15,4,-17,-24,-50,-36,-24,-29
1583443837.614566,-5,-5,3,-48,6,-7,3,-19
1583443837.614566,0,-12,-8,-20,20,122,34,8
1583443837.6234298,41,16,48,38,107,112,30,50
1583443837.6234298,5,0,-23,-53,-16,3,1,5
1583443837.6373816,-2,4,13,44,-87,-46,-7,-7
1583443837.6373816,-27,-19,9,127,-88,-128,-73,-40
1583443837.6442654,7,7,-13,123,127,127,114,33
1583443837.6442654,15,5,-21,-128,-92,-128,11,20
1583443837.6600401,1,7,-5,-86,-128,57,-6,-5
1583443837.6600401,-8,-5,26,127,46,-71,-30,-11
1583443837.6669688,-5,-3,6,-98,48,64,26,-9
1583443837.6669688,-23,-3,-25,-107,-128,-128,-128,-55
1583443837.6745763,2,10,-23,-119,125,127,60,9
1583443837.6745763,3,7,2,-123,-50,-128,-43,-10
1583443837.6832316,-29,-8,-20,52,-128,-36,-39,-34
1583443837.6832316,-26,-10,-28,37,-123,-104,-72,-51
1583443837.6975513,11,-13,-25,-128,8,58,67,33
1583443837.6975513,-8,4,-29,117,113,25,-7,-11
1583443837.7043188,-18,-10,-2,-128,-128,-125,-46,-33
1583443837.7043188,18,0,-5,127,127,127,44,33
1583443837.720272,16,-2,-18,-128,26,-115,34,27
1583443837.720272,-36,-37,-38,127,56,-128,-81,-54
1583443837.726795,16,8,4,114,127,127,84,29
1583443837.726795,-3,-9,-16,71,-72,-50,-20,-13
1583443837.7340379,27,14,39,-69,55,-22,12,28
1583443837.7340379,-22,-12,-15,127,-2,52,-7,-25
1583443837.7430305,5,-3,27,-80,-115,-4,-23,4
1583443837.7430305,-19,-7,-58,-116,15,-44,-17,-21
1583443837.7580585,5,-4,6,127,-128,-10,42,12
1583443837.7580585,5,8,10,81,58,20,22,22
1583443837.764504,6,11,7,-120,-26,-63,-28,-1
1583443837.764504,-17,-20,-10,-105,127,-54,-80,-30
1583443837.780119,5,23,-13,34,-105,-111,17,9
1583443837.780119,-13,-17,1,127,40,-80,-27,-11
1583443837.786921,-5,0,52,122,-89,-54,-10,-7
1583443837.786921,-3,0,-6,-25,127,63,14,8
1583443837.8032951,-17,31,10,-3,81,7,2,-7
1583443837.8032951,-3,-21,-8,-128,-26,19,0,4
1583443837.8093703,13,-41,11,-60,-117,19,3,5
1583443837.8093703,1,51,24,-58,-19,23,8,-8
1583443837.8183477,23,117,-1,-13,68,17,4,6
1583443837.8183477,28,-128,32,33,92,72,27,41
1583443837.8242388,-16,-16,7,127,69,26,2,8
1583443837.8242388,20,17,13,-77,76,18,10,8
1583443837.8407269,8,26,16,15,-44,-32,1,1
1583443837.8407269,6,-1,17,28,-4,5,0,2
1583443837.8469517,8,0,-13,-77,-83,-17,-2,2
1583443837.8469517,-5,15,-1,28,-91,0,1,-7
1583443837.863252,-16,-42,-27,-12,-128,-46,-22,-25
1583443837.863252,8,13,16,127,35,13,5,-13
1583443837.8679976,2,-10,-25,-4,-3,-52,-5,8
1583443837.8679976,-15,37,4,-17,-3,20,8,-4
1583443837.8778427,21,78,51,2,-9,13,5,2
1583443837.8778427,-24,-55,-11,4,-30,-17,-5,-15
1583443837.8842742,12,3,-31,17,49,34,8,27
1583443837.8842742,-21,25,74,-1,-8,-16,-3,2
1583443837.9005113,11,-7,35,-2,-5,-2,-2,46
1583443837.9005113,20,-22,-13,3,19,28,7,-3
1583443837.9068704,4,-22,-14,-8,22,-15,-7,-21
1583443837.9068704,2,38,0,41,127,-8,-1,-18
1583443837.9238012,-11,10,-24,-34,-69,-14,-7,-27
1583443837.9238012,-2,-10,1,8,0,-2,3,-2
1583443837.929993,1,72,12,13,3,1,2,6
1583443837.929993,-23,-116,-15,-7,-9,1,-1,-6
1583443837.9382265,20,9,-22,-7,-66,37,14,8
1583443837.9382265,-5,-12,6,26,127,-24,-9,-2
1583443837.9441204,-8,24,-8,51,-8,-15,-7,-5
1583443837.9441204,-1,9,-2,-9,-16,-22,-1,-3
1583443837.960427,4,41,16,3,6,12,8,6
1583443837.960427,-11,-119,-43,-34,-11,10,-7,-21
1583443837.9668252,-25,32,17,-41,-14,-9,-15,1
1583443837.9668252,19,26,19,4,-21,-2,17,21
1583443837.9843965,-37,12,-7,-10,1,4,0,9
1583443837.9843965,12,-28,33,12,4,2,5,-14
1583443837.9918473,19,-30,-9,-11,62,-28,1,6
1583443837.9918473,10,-5,-8,-1,-62,42,13,7
1583443837.9968438,-17,-2,-25,4,-101,49,-3,-21
1583443837.9968438,-5,2,1,-50,-54,-32,-7,-6
1583443838.0060928,15,-1,-1,44,103,17,11,24
1583443838.0060928,-17,14,12,-76,-128,-53,-30,-35
1583443838.019318,1,-8,-2,18,-45,77,37,11
1583443838.019318,0,-1,-7,85,127,30,4,1
1583443838.0266361,18,4,16,-113,-59,-56,-8,15
1583443838.0266361,2,8,28,127,47,15,6,1
1583443838.0432057,11,15,20,-48,-128,56,38,13
1583443838.0432057,-1,-15,5,-21,123,-1,3,5
1583443838.0497336,11,-3,-16,127,75,9,8,14
1583443838.0497336,-5,10,32,36,127,-18,-8,-4
1583443838.056855,12,0,32,-128,-111,34,8,15
1583443838.056855,-22,-56,-9,115,127,-10,-14,-22
1583443838.0672731,-6,36,86,88,12,-23,-7,-11
1583443838.0672731,29,7,25,-58,99,18,18,34
1583443838.0805717,8,-6,21,108,127,61,16,8
1583443838.0805717,16,27,27,-128,-128,21,9,11
1583443838.0870066,-37,-96,-17,127,127,-29,-27,-41
1583443838.0870066,20,37,20,-37,118,41,21,12
1583443838.1036,30,-19,4,-1,-56,-26,13,22
1583443838.1036,22,71,66,127,-31,37,23,22
1583443838.108927,1,56,31,-8,-128,-36,-3,-2
1583443838.108927,15,0,10,-128,127,7,5,14
1583443838.1170714,-25,13,-33,-19,-55,10,-19,-32
1583443838.1170714,-9,23,23,44,85,33,0,-5
1583443838.1261654,31,41,33,-14,-48,-79,10,30
1583443838.1261654,-4,17,-24,127,-71,43,7,-10
1583443838.139292,-8,27,-30,-46,-5,-22,-14,-16
1583443838.139292,3,-128,11,-19,-128,-43,-9,0
1583443838.146232,-1,-49,-8,62,-128,-19,4,15
1583443838.146232,-17,-1,-14,-123,-128,5,-20,-36
1583443838.1626194,9,21,11,-37,-128,-20,9,5
1583443838.1626194,-15,-3,-48,-63,127,21,-5,-15
1583443838.1659853,2,46,5,46,-93,-63,-9,-3
1583443838.1659853,4,3,8,38,-28,24,-2,4
1583443838.1761823,-18,-52,-42,127,-128,-73,-25,-16
1583443838.1761823,12,-11,11,-39,127,-7,19,13
1583443838.185051,-13,-37,23,127,127,-29,-38,-20
1583443838.185051,-1,-29,-26,-60,-63,-60,-12,-5
1583443838.199352,17,22,3,-100,-128,-4,21,20
1583443838.199352,-9,11,-6,8,-128,80,-3,-13
1583443838.2060091,-27,-15,-24,25,-128,-128,-53,-41
1583443838.2060091,-3,2,-17,-30,-128,-128,-15,-8
1583443838.222449,10,31,39,81,54,-9,35,12
1583443838.222449,-10,0,-21,17,-32,-128,-112,-39
1583443838.2255201,25,8,-10,16,127,127,127,64
1583443838.2255201,-9,-1,-1,-17,-33,-128,-48,-23
1583443838.2361152,-6,-6,-8,53,-125,-73,-51,-14
1583443838.2361152,-20,-22,-25,-94,-56,-118,-37,-17
1583443838.2450652,9,18,20,29,127,-113,-31,3
1583443838.2450652,25,25,26,8,127,-127,93,30
1583443838.2593124,-8,-7,3,127,127,127,34,5
1583443838.2593124,-5,-17,-44,123,-128,117,58,8
1583443838.2660403,-9,-1,26,81,108,-53,-36,-23
1583443838.2660403,-3,10,25,-45,-128,-128,-75,-22
1583443838.2825387,7,-8,-18,-5,-96,-67,64,19
1583443838.2825387,-11,-8,-13,38,-102,-128,-37,-19
1583443838.2857637,12,11,18,-27,4,127,91,24
1583443838.2857637,16,7,-2,-34,-128,75,38,26
1583443838.296136,-8,-3,-12,-102,28,-28,-21,-9
1583443838.296136,12,11,-5,-87,-128,-128,-18,6
1583443838.3051028,2,-6,-7,36,41,23,-13,8
1583443838.3051028,5,15,6,-128,-128,-63,16,5
1583443838.3193142,6,3,8,67,72,-128,-58,-10
1583443838.3193142,48,23,49,62,127,127,127,97
1583443838.3261228,-7,5,-5,-41,-128,-128,-66,-26
1583443838.3261228,-5,4,-15,-110,-128,-128,-40,-17
1583443838.3425539,-3,2,3,82,127,127,15,1
1583443838.3425539,-1,6,1,-58,-24,-47,-25,-10
1583443838.3460891,14,-5,27,-66,-57,127,70,41
1583443838.3460891,15,1,16,127,110,127,67,36
1583443838.3562148,-18,-14,-59,40,-128,-128,-66,-22
1583443838.3562148,-12,3,7,11,-73,-128,-54,-32
1583443838.3652363,13,-2,12,-29,11,127,77,32
1583443838.3652363,9,5,-15,21,105,55,14,10
1583443838.3794088,-3,0,-1,-71,-28,-13,-24,-14
1583443838.3794088,27,-4,-3,47,127,127,63,56
1583443838.3860974,1,12,3,21,-107,-128,-46,-15
1583443838.3860974,-2,-3,-6,-4,9,127,91,13
1583443838.402555,13,10,9,-128,-62,-64,-2,15
1583443838.402555,12,-2,34,127,-6,53,38,21
1583443838.4059825,-11,-8,-42,-91,34,72,13,-7
1583443838.4059825,9,-3,30,127,115,91,2,4
1583443838.4162247,2,-4,-11,36,39,-83,-7,-4
1583443838.4162247,-16,-10,-24,-73,-128,34,-29,-19
1583443838.4259055,-28,-5,15,127,127,-34,-32,-35
1583443838.4259055,2,-1,-5,-69,-80,-115,-7,2
1583443838.4397824,-7,-3,8,-53,-128,-128,-108,-36
1583443838.4397824,-13,-11,-13,127,127,127,127,14
1583443838.4468462,-3,7,20,-128,-62,-87,-19,-8
1583443838.4468462,-1,4,12,53,-20,-128,-56,-18
1583443838.4631205,9,-2,-5,38,127,127,95,27
1583443838.4631205,0,2,16,-32,-67,-49,-25,-8
1583443838.469923,-3,-7,-11,127,-51,-60,-3,1
1583443838.469923,7,6,8,-4,121,80,42,20
1583443838.4773877,3,-2,-10,-39,-128,-81,-29,-5
1583443838.4773877,11,6,22,-4,54,-20,-18,6
1583443838.4873142,31,13,30,91,127,127,127,81
1583443838.4873142,-1,3,8,-2,-128,-128,-40,-11
1583443838.5008128,-11,-8,-29,-128,-105,-56,-12,-7
1583443838.5008128,25,14,36,12,53,127,20,29
1583443838.5073755,-25,1,-14,-128,-128,-128,-103,-50
1583443838.5073755,2,5,-16,127,-128,-106,1,1
1583443838.523618,11,-3,31,46,127,127,20,29
1583443838.523618,-2,17,28,79,110,-128,-34,-17
1583443838.5307398,-11,-7,-26,-25,5,-68,-32,-22
1583443838.5307398,-10,-9,-24,127,-128,-63,-29,-20
1583443838.5363111,8,15,23,-28,-107,-128,-95,-14
1583443838.5363111,-14,-2,-13,28,-3,-128,-22,-23
1583443838.5467718,-7,10,-16,-78,-128,-128,-53,-23
1583443838.5467718,-20,3,4,7,127,-99,-30,-24
1583443838.560692,-4,6,10,33,-109,-30,-12,-6
1583443838.560692,-21,-8,-27,-48,-128,72,-16,-19
1583443838.567266,-4,1,3,127,-128,-128,-44,-18
1583443838.567266,-9,3,-4,-18,-20,41,21,-5
1583443838.5833375,12,5,21,21,-47,127,53,20
1583443838.5833375,11,0,18,52,127,-34,3,18
1583443838.5982478,3,7,18,127,127,127,41,13
1583443838.5982478,5,7,6,-60,-78,-128,-9,3
1583443838.6023734,-18,-17,-36,-128,-100,-52,-44,-26
1583443838.6023734,-14,-6,-1,34,127,-128,-69,-24
1583443838.6078527,-3,6,0,-37,50,-88,-5,3
1583443838.6078527,12,11,12,55,99,-128,-18,10
1583443838.6204677,-12,-16,18,110,116,13,-50,-23
1583443838.6204677,2,4,-5,127,127,89,47,13
1583443838.626962,-5,-5,-14,-29,127,127,36,0
1583443838.626962,6,5,19,26,-15,-103,-12,9
1583443838.6432154,4,9,-32,-113,-128,-128,-32,-6
1583443838.6432154,6,14,-24,49,105,-54,23,15
1583443838.6496544,8,1,0,-101,23,-128,-24,6
1583443838.6496544,-33,-6,-12,107,76,-128,-128,-73
1583443838.6571317,17,7,8,-109,60,127,127,38
1583443838.6571317,-5,-2,16,-38,94,-100,-33,-11
1583443838.6674643,-10,-8,-24,-66,-128,-128,-94,-22
1583443838.6674643,-17,4,-38,-48,65,101,26,-19
1583443838.6807287,-1,-8,1,-13,127,12,8,5
1583443838.6807287,2,-3,-10,-84,-128,-1,2,5
1583443838.6885374,1,0,-6,-19,66,-48,-6,4
1583443838.6885374,5,5,-11,4,127,127,41,5
1583443838.7025619,7,2,37,17,127,44,-4,10
1583443838.7025619,-13,2,-20,14,127,-77,-37,-22
1583443838.7090983,-21,-9,-3,5,-128,-128,-128,-43
1583443838.7090983,-14,5,-20,-56,-73,-128,-47,-21
1583443838.7259169,10,7,24,-13,2,-113,-19,4
1583443838.7259169,1,-4,24,127,127,-128,-87,-14
1583443838.7325208,6,12,-10,-90,82,48,23,2
1583443838.7325208,-1,-15,-14,-76,69,-5,-2,0
1583443838.7404442,-46,-35,-84,70,-50,-128,-63,-61
1583443838.7404442,17,5,24,49,105,127,65,33
1583443838.7463353,-2,-2,-9,-57,-68,-77,-25,-9
1583443838.7463353,3,-4,-11,17,-128,-104,-26,0
1583443838.762484,-16,4,-26,20,-128,106,8,-18
1583443838.762484,2,-2,1,-23,-77,2,-11,-8
1583443838.7691443,19,5,22,76,127,127,11,35
1583443838.7691443,3,10,18,-22,127,-37,-8,3
1583443838.785725,-3,-5,4,-108,40,63,13,-2
1583443838.785725,-3,3,-2,-5,-75,-70,-12,-2
1583443838.7918806,6,-7,4,-38,51,127,62,18
1583443838.7918806,10,8,25,127,46,70,62,28
1583443838.8001769,-13,-5,16,-73,-14,-81,-24,-14
1583443838.8001769,2,-8,13,95,127,-128,-56,-2
1583443838.8066447,5,-10,-32,-82,37,127,74,18
1583443838.8066447,2,10,5,-101,-12,-90,-24,-2
1583443838.8231397,-20,-6,35,127,-13,-128,-107,-44
1583443838.8231397,12,6,5,-116,74,127,56,27
1583443838.829585,21,-3,20,6,127,-55,7,27
1583443838.829585,-19,-2,-10,-31,-17,-3,-27,-29
1583443838.8465707,-4,-3,9,-31,-60,-72,-16,-3
1583443838.8465707,-5,-10,15,77,-128,-117,-43,-16
1583443838.853739,7,16,-1,0,28,107,43,17
1583443838.853739,1,-6,-16,-40,-32,-23,-7,0
1583443838.8600168,1,-9,-1,-26,-128,-128,-110,-26
1583443838.8600168,4,10,13,5,100,23,44,16
1583443838.8670487,-2,-2,-3,-53,-35,-88,-23,-7
1583443838.8670487,6,4,25,121,4,-128,3,9
1583443838.8830333,-12,1,-26,-89,-128,54,13,-15
1583443838.8830333,4,-4,-4,-54,-64,-7,6,5
1583443838.88987,-13,3,-5,109,-97,-128,-101,-46
1583443838.88987,15,0,19,4,127,127,51,28
1583443838.906126,15,17,7,-49,101,-25,32,25
1583443838.906126,-2,2,15,-56,-78,-56,-19,-6
1583443838.913184,17,0,24,71,127,127,21,20
1583443838.913184,-9,13,-20,31,4,-77,-46,-23
1583443838.9198751,-1,0,-6,-14,-31,-77,-16,-5
1583443838.9198751,-4,-7,25,76,-17,-128,-46,-8
1583443838.9265103,-3,-3,-32,-82,23,46,20,2
1583443838.9265103,-9,8,4,-15,-24,-70,-20,-21
1583443838.9425197,5,-5,1,-36,-63,-20,-12,2
1583443838.9425197,-6,-8,8,116,-6,64,-9,-5
1583443838.9492493,3,4,12,-6,127,127,59,10
1583443838.9492493,6,-5,-2,74,-82,17,7,6
1583443838.965922,-12,-14,1,20,-72,18,-21,-15
1583443838.965922,13,1,13,13,34,127,53,23
1583443838.9727705,9,-3,11,-9,32,127,51,22
1583443838.9727705,-22,-13,5,113,127,-20,-45,-33
1583443838.9798217,1,4,-6,-14,105,-19,-8,-1
1583443838.9798217,7,8,17,-42,-56,27,4,7
1583443838.986703,16,-8,-33,29,-128,127,119,31
1583443838.986703,11,1,15,9,55,127,89,27
1583443839.002685,-7,-22,-10,68,127,9,-14,-4
1583443839.002685,11,10,9,95,-128,-65,-17,6
1583443839.0092845,5,0,-29,-114,-128,-47,-16,-2
1583443839.0092845,11,5,14,51,-65,53,43,27
1583443839.025374,2,-4,6,35,55,-8,-10,1
1583443839.025374,0,-17,-6,76,127,-83,-15,1
1583443839.0309582,-8,6,-14,-21,-109,-70,-8,-15
1583443839.0309582,3,1,-6,-20,-19,2,4,5
1583443839.0398877,-10,-10,-5,15,13,-43,-21,-14
1583443839.0398877,-1,0,-3,24,-64,-43,-15,-9
1583443839.0467184,7,5,6,-19,69,-77,-5,5
1583443839.0467184,-22,-24,-23,127,127,127,44,-13
1583443839.0629904,0,7,6,-27,11,-20,-4,0
1583443839.0629904,5,-3,12,-18,-37,-46,-8,7
1583443839.069343,9,-4,-1,-43,60,127,57,22
1583443839.069343,-8,2,-1,10,-35,-45,-17,-13
1583443839.0863419,-4,-5,0,-6,8,16,-1,-1
1583443839.0863419,-1,3,-2,33,-16,-8,-15,-6
1583443839.092235,1,3,2,-1,-36,25,11,0
1583443839.092235,-2,3,2,15,42,-17,8,-1
1583443839.099991,18,-2,5,7,-128,19,16,28
1583443839.099991,-38,-16,-29,47,15,8,-29,-47
1583443839.107096,4,9,8,-3,2,0,-8,-4
1583443839.107096,-1,-5,-3,-21,-11,12,-3,3
1583443839.1233165,6,19,4,-15,-7,-7,-5,2
1583443839.1233165,2,-43,-7,7,36,-8,4,5
1583443839.1296604,-4,15,9,29,-23,21,0,-5
1583443839.1296604,1,16,1,10,-5,-8,-5,-7
1583443839.1462116,-4,-14,9,3,38,9,-2,3
1583443839.1462116,2,1,-8,-6,9,8,0,3
1583443839.15369,-5,3,14,-1,-52,11,0,-6
1583443839.15369,-8,-13,-8,1,34,-12,-1,1
1583443839.1592817,-9,-11,15,-3,-39,22,6,-5
1583443839.1592817,-11,4,-13,-16,-73,30,4,-6
1583443839.166122,-6,-15,-1,2,-20,-13,-3,-4
1583443839.166122,4,6,0,1,-1,-5,1,2
1583443839.182959,2,2,-4,-1,61,17,7,5
1583443839.182959,0,9,-7,2,-9,-20,-8,3
1583443839.1892896,-1,16,8,13,-38,1,-10,-7
1583443839.1892896,-7,-45,-32,-3,-31,-5,-1,-21
1583443839.2063398,0,8,0,-12,-56,22,6,34
1583443839.2063398,14,51,2,8,1,-7,-5,-8
1583443839.2124004,-1,-5,-1,1,1,1,-2,-15
1583443839.2124004,13,4,-8,2,11,3,9,38
1583443839.2191067,0,-14,9,-6,-71,5,-3,-12
1583443839.2191067,-1,-18,-27,-13,-43,23,1,-15
1583443839.2284455,5,-9,3,10,32,-23,-1,24
1583443839.2284455,-4,-10,3,-5,34,2,0,-9
1583443839.2430372,-1,3,-4,5,34,13,1,-3
1583443839.2430372,3,4,4,13,26,4,-4,1
1583443839.249311,-6,6,2,-17,-60,6,-6,-24
1583443839.249311,7,-7,1,6,-2,7,4,19
1583443839.2659335,3,-14,-57,-9,-37,3,0,10
1583443839.2659335,-2,4,11,-4,6,-23,1,2
1583443839.2720528,1,16,37,3,-9,-1,0,-18
1583443839.2720528,-1,4,-6,-7,-24,3,-4,13
1583443839.2793283,0,7,32,7,7,9,3,-4
1583443839.2793283,-2,-14,-32,-2,-11,2,-2,-3
1583443839.2886572,0,-1,-14,7,9,9,4,1
1583443839.2886572,-7,-16,-14,-13,-18,3,0,-28
1583443839.3030882,9,18,-2,2,-19,-3,3,28
1583443839.3030882,-5,-2,-16,-1,0,-3,-1,0
1583443839.309418,11,-8,-10,-12,-34,22,3,-3
1583443839.309418,-7,4,-7,-1,-59,-42,-10,-15
1583443839.3265164,-2,-5,1,-9,-3,2,0,-7
1583443839.3265164,-3,2,11,4,41,3,-6,-5
1583443839.3329794,1,0,-4,-4,-8,-7,-5,-7
1583443839.3329794,4,3,6,0,-4,5,2,11
1583443839.3390489,2,-1,2,4,-6,4,6,6
1583443839.3390489,1,-5,-8,-3,-42,-10,4,-1
1583443839.3482742,6,7,13,0,16,-3,-4,-2
1583443839.3482742,-2,-1,-5,2,-6,5,6,-3
1583443839.3629923,-5,-10,-3,5,-2,-2,-4,-7
1583443839.3629923,5,0,-2,2,5,-1,2,14
1583443839.3693297,-4,-2,-6,-3,-10,-4,-7,-13
1583443839.3693297,-5,0,1,-4,-2,-3,-5,-6
1583443839.3864021,7,11,41,3,-4,-3,-4,-9
1583443839.3864021,-10,-4,-7,-2,0,-4,0,8
1583443839.3929446,-2,-5,-14,-3,-6,1,-1,-9
1583443839.3929446,-4,0,-4,-5,-21,0,-3,-20
1583443839.3995,-15,-4,-10,6,-2,23,4,2
1583443839.3995,-4,-7,-13,-9,31,-3,-6,-47
1583443839.408784,37,11,10,17,-36,0,1,39
1583443839.408784,-5,-3,2,-13,9,0,-7,-21
1583443839.4230795,6,-5,1,-3,1,10,4,-6
1583443839.4230795,2,0,-7,-5,6,-18,-4,-4
1583443839.4294186,1,-2,-10,-24,-30,5,9,-2
1583443839.4294186,-5,2,-6,14,36,-4,2,-6
1583443839.4458597,-8,-6,-1,9,-5,-3,-5,-4
1583443839.4458597,12,8,-6,-1,1,-3,-1,6
1583443839.4509091,-2,-6,-2,0,-3,-1,-2,-2
1583443839.4509091,9,7,-35,1,0,-3,8,4
1583443839.4596891,-6,7,104,5,-4,7,-9,-26
1583443839.4596891,27,10,-8,5,-8,-4,1,18
1583443839.4695015,0,-13,-26,4,-1,-5,-16,-67
1583443839.4695015,-46,10,-7,-11,1,6,12,18
1583443839.4829588,-24,6,16,6,-3,-8,-10,-27
1583443839.4829588,5,-1,7,-8,4,-3,-5,8
1583443839.4895422,-5,-1,-3,-27,-19,-13,-9,-33
1583443839.4895422,-24,-1,-1,10,-23,5,4,1
1583443839.5057619,7,5,-4,-8,51,-10,-3,-6
1583443839.5057619,1,-4,-2,-9,-93,-8,-3,0
1583443839.5113652,-3,10,9,19,-27,-13,-1,-4
1583443839.5113652,-11,-1,-16,-27,-12,-18,-7,-16
1583443839.5199513,0,-4,13,-12,-4,9,2,3
1583443839.5199513,2,-8,-18,-2,8,3,5,9
1583443839.5286915,-3,13,5,5,-27,-26,-6,-5
1583443839.5286915,4,4,2,1,6,1,2,14
1583443839.541813,37,-9,-9,-1,3,10,13,25
1583443839.541813,-3,4,7,3,-3,3,-4,-19
1583443839.5492134,35,-4,16,-8,-12,-19,-14,14
1583443839.5492134,-24,0,-29,-8,-1,2,-8,-22
1583443839.5656824,5,4,17,12,2,-13,-5,-4
1583443839.5656824,-37,-16,-22,0,8,1,-1,17
1583443839.5720725,15,-3,-19,-14,-2,-1,9,1
1583443839.5720725,-15,12,3,5,3,3,2,-11
1583443839.5787652,19,-4,6,18,6,-32,-8,-8
1583443839.5787652,-6,-10,5,-8,-7,40,16,6
1583443839.5885324,-9,4,25,4,16,-16,-13,-8
1583443839.5885324,-16,-5,-20,-16,-27,-39,-18,-16
1583443839.602507,12,5,6,13,-13,-76,-44,-12
1583443839.602507,33,17,9,-19,29,23,76,44
1583443839.6092157,-25,-9,-3,-5,-26,-67,-26,-15
1583443839.6092157,19,-4,6,4,-5,-15,1,3
1583443839.6246302,-47,2,20,11,17,78,20,6
1583443839.6246302,4,-2,-30,-12,-17,-22,-9,9
1583443839.6315973,-18,5,73,2,0,-19,-15,-13
1583443839.6315973,22,7,-35,-5,3,37,5,2
1583443839.6480846,-22,-23,-9,-4,-11,-8,-11,-9
1583443839.6480846,-24,-5,28,9,-10,-38,-13,5
1583443839.6545355,99,26,-26,-11,-11,-15,1,5
1583443839.6545355,5,11,20,0,5,-37,-8,-8
1583443839.6623492,-11,4,8,4,-3,33,8,4
1583443839.6623492,-17,-20,-18,-1,-9,-39,-10,-13
1583443839.6690502,-9,8,9,11,5,28,-18,-13
1583443839.6690502,2,3,7,7,59,127,57,18
1583443839.6857162,-10,-16,-10,-19,-88,-128,-54,-21
1583443839.6857162,17,15,14,-26,-25,-46,-13,-6
1583443839.6926687,-14,-12,-18,0,-23,-9,-15,-17
1583443839.6926687,-6,-7,0,-7,-32,-72,-20,-8
1583443839.7078815,-2,-27,-14,3,-45,-55,-43,-15
1583443839.7078815,23,29,12,5,116,127,127,50
1583443839.7137206,5,8,-43,-20,-63,-82,-31,-44
1583443839.7137206,-8,-16,-33,-18,-28,-32,-20,-14
1583443839.722962,-10,-10,-2,-6,-20,-82,-9,5
1583443839.722962,-37,-22,-3,-4,-15,-33,-15,-16
1583443839.7292278,7,12,127,33,6,22,11,64
1583443839.7292278,36,40,-121,-11,-41,-21,-45,-70
1583443839.744798,69,33,120,25,98,127,54,32
1583443839.744798,-38,-3,33,-3,-12,-23,-23,-35
1583443839.7515838,-99,-46,-104,10,-93,-128,-36,-5
1583443839.7515838,42,38,81,17,86,70,59,23
1583443839.7685425,64,18,-40,-15,-27,-49,-27,-7
1583443839.7685425,-15,9,99,-3,14,-50,16,17
1583443839.775324,-15,-14,-82,17,-71,-35,-14,0
1583443839.775324,9,11,65,5,127,127,87,34
1583443839.7823176,33,12,23,-10,-20,-44,12,9
1583443839.7823176,-25,-3,21,-48,-9,-52,-26,-16
1583443839.7889528,-37,-19,-10,40,-59,-42,-25,-25
1583443839.7889528,8,5,-6,19,-32,61,27,19
1583443839.8055987,-55,-37,-24,6,17,23,9,11
1583443839.8055987,48,27,41,-12,-5,37,12,31
1583443839.8116722,42,14,-17,-5,-13,-39,-31,-38
1583443839.8116722,-13,4,115,16,-2,-3,-5,0
1583443839.8285701,-42,-70,-24,-44,-21,-9,-9,-24
1583443839.8285701,-13,-20,-106,11,25,17,7,9
1583443839.8346767,-9,23,53,-11,-98,-99,-41,-36
1583443839.8346767,24,62,1,5,76,30,54,24
1583443839.8424623,18,-40,-19,-4,-52,-40,-39,-42
1583443839.8424623,-14,-9,81,13,-57,-110,-39,-12
1583443839.849268,-24,-12,-47,5,-21,20,12,1
1583443839.849268,-23,-3,-9,-19,-128,-128,-91,-17
1583443839.8650155,35,31,14,12,35,108,58,27
1583443839.8650155,35,-14,54,20,102,-8,-14,20
1583443839.871577,-1,-4,7,-9,-46,-26,18,-12
1583443839.871577,-8,1,4,-12,-5,-1,-46,-30
1583443839.8886256,35,23,-19,-1,36,-25,15,30
1583443839.8886256,-36,-23,45,16,-19,-110,-52,-18
1583443839.8955486,-44,-14,-106,-10,-39,4,17,11
1583443839.8955486,40,2,45,-3,97,-43,-6,3
1583443839.902606,80,23,-28,4,50,93,34,17
1583443839.902606,-43,-22,26,7,-22,-18,-14,-18
1583443839.9090865,-46,-14,21,-2,-20,-16,-8,-3
1583443839.9090865,6,-25,-21,-22,-128,-122,-73,-13
1583443839.9252918,25,47,82,23,102,127,86,9
1583443839.9252918,0,-42,-109,-10,-32,-52,-13,-25
1583443839.9318058,-8,-15,-74,-3,8,-66,-17,6
1583443839.9318058,-58,-1,-24,-11,-125,-128,-65,-37
1583443839.9486582,46,33,96,7,14,-92,27,43
1583443839.9486582,-24,0,46,-16,-35,-125,-33,-20
1583443839.9555793,-32,-14,-45,7,-128,-70,-38,-21
1583443839.9555793,53,19,24,-1,-13,117,34,6
1583443839.9630098,-45,-15,-21,-4,-65,-59,-17,9
1583443839.9630098,83,40,-35,15,17,-24,-2,3
1583443839.9712734,-13,24,26,1,10,57,-9,-11
1583443839.9712734,-32,-28,-88,-5,18,18,2,12
1583443839.985483,25,2,-71,-4,-6,1,15,37
1583443839.985483,33,33,54,14,28,16,-7,-1
1583443839.992804,-33,-26,-46,2,20,4,0,-4
1583443839.992804,-56,-13,45,2,-19,19,0,-2
1583443840.007736,28,6,26,8,-27,-56,-13,0
1583443840.007736,-50,-6,-25,-15,127,127,51,23
1583443840.0126877,13,1,18,13,-32,58,-11,-33
1583443840.0126877,31,18,45,-21,-104,-100,-31,-11
1583443840.0313323,-10,-39,-93,22,127,127,51,15
1583443840.0313323,6,-1,13,-4,-86,-128,-88,-32
1583443840.0378532,-60,-29,-12,-12,15,79,36,11
1583443840.0378532,73,54,9,18,126,14,33,53
1583443840.0454402,23,-9,4,-29,-35,-82,-21,-27
1583443840.0454402,-45,-40,-60,-3,-33,-54,-42,-18
1583443840.0521677,-11,17,-7,-13,82,123,21,32
1583443840.0521677,86,-6,28,5,-8,4,-15,-24
1583443840.0683568,-62,10,-34,10,-21,6,-3,-21
1583443840.0683568,-47,-7,17,8,0,13,1,8
1583443840.0737305,-49,-28,-17,-2,0,3,-3,-20
1583443840.0737305,67,35,93,6,-10,-32,-36,-25
1583443840.0829449,-5,4,40,9,-11,8,-5,-4
1583443840.0829449,-25,-10,-22,-3,-128,-95,-70,-22
1583443840.0893838,115,32,110,39,73,19,85,46
1583443840.0893838,-79,6,-22,-18,-27,-56,-18,-2
1583443840.1055744,47,4,-49,20,61,127,-5,-21
1583443840.1055744,-22,-4,36,-2,-117,-128,-55,-8
1583443840.1119952,-46,6,41,-38,127,127,87,16
1583443840.1119952,66,10,-99,3,-94,-123,-47,-16
1583443840.1282406,-41,-7,-101,0,-45,-61,-33,-14
1583443840.1282406,-35,-12,60,-1,-19,17,-22,-13
1583443840.1335173,61,-24,0,3,-116,-128,-74,-20
1583443840.1335173,-108,4,-52,26,116,127,99,-15
1583443840.1422613,127,33,-128,-12,-47,-48,-18,-35
1583443840.1422613,-34,-10,44,1,-15,-27,-16,-1
1583443840.1518419,-36,-10,-27,1,7,3,-11,12
1583443840.1518419,37,22,85,3,21,24,13,16
1583443840.1653752,-8,0,-47,2,21,21,1,1
1583443840.1653752,13,39,114,8,-6,-5,-2,5
1583443840.1714253,-17,-13,-27,1,-60,125,9,4
1583443840.1714253,32,32,89,26,127,127,68,28
1583443840.187441,39,6,-4,-13,-49,-93,-7,2
1583443840.187441,-64,-49,-83,-11,8,74,-34,-30
1583443840.1902816,-3,36,127,44,127,127,127,66
1583443840.1902816,9,-9,-94,1,52,2,13,27
1583443840.2010632,4,41,-18,-1,-94,-68,-30,-13
1583443840.2010632,37,-9,127,1,-1,-51,-3,12
1583443840.2108335,-4,-29,-65,5,65,101,22,-23
1583443840.2108335,14,20,2,-2,2,14,10,7
1583443840.22545,73,19,-20,-12,8,37,13,22
1583443840.22545,11,-43,-70,1,17,12,-9,-9
1583443840.2311585,11,1,97,-16,-19,-24,-29,-7
1583443840.2311585,55,35,54,-1,6,6,5,-15
1583443840.247499,46,-11,-49,15,-1,4,-1,-13
1583443840.247499,-82,-15,8,2,15,15,12,20
1583443840.2506914,-94,-22,-128,-8,-71,-128,-52,-40
1583443840.2506914,43,39,-12,6,42,127,45,16
1583443840.2610803,4,-17,8,-17,-128,-9,-44,-38
1583443840.2610803,-13,-10,40,18,61,127,49,35
1583443840.2700634,30,10,-24,12,54,21,40,37
1583443840.2700634,-8,-20,44,-18,-93,-100,-60,-23
1583443840.2842398,4,4,49,7,-5,8,51,34
1583443840.2842398,-7,-23,-12,10,10,-128,-74,-18
1583443840.2909968,117,58,122,18,53,127,102,45
1583443840.2909968,-23,-36,-26,-24,-60,-75,-25,-15
1583443840.3073769,5,-24,-48,13,-23,-51,-22,-1
1583443840.3073769,-31,-7,83,-7,21,1,29,40
1583443840.3105528,90,6,10,-18,-31,-9,-27,-50
1583443840.3105528,13,-7,25,19,-3,15,16,-7
1583443840.3210313,-10,-12,-128,3,7,12,6,-4
1583443840.3210313,-62,-42,34,0,28,9,15,39
1583443840.3299515,-33,50,127,2,-2,18,17,-43
1583443840.3299515,-60,-40,51,15,-54,-102,-34,-31
1583443840.3442452,0,35,36,-9,-128,-128,-31,-9
1583443840.3442452,7,11,-1,23,127,127,127,95
1583443840.3509645,112,55,4,10,-124,-77,-21,-24
1583443840.3509645,65,-10,-74,16,-89,-122,-56,-25
1583443840.3674839,-24,12,95,23,22,93,-1,31
1583443840.3674839,-29,-49,17,-5,127,127,105,44
1583443840.37053,12,33,-117,39,127,127,114,50
1583443840.37053,57,-26,-67,7,-59,-78,-35,-7
1583443840.381062,-25,-7,127,2,-34,-44,-20,-18
1583443840.381062,-48,-21,-67,-5,13,20,-23,-32
1583443840.3899136,56,-3,-34,-8,20,-3,4,32
1583443840.3899136,28,32,2,0,-2,12,11,-15
1583443840.4042382,4,-20,-86,-13,8,2,-3,-6
1583443840.4042382,-20,-35,-128,-17,16,7,-2,1
1583443840.4110126,-86,-41,22,0,8,28,11,38
1583443840.4110126,11,57,-43,21,-11,4,8,12
1583443840.4273405,52,6,-14,-1,49,42,1,-3
1583443840.4273405,22,14,103,8,-39,34,9,8
1583443840.4299645,-45,-12,-40,-4,32,-49,1,-28
1583443840.4299645,-29,-5,-128,-15,9,-4,-9,-15
1583443840.440951,-95,-56,-43,-19,22,-128,-51,-13
1583443840.440951,21,18,48,-10,-128,-128,-46,-31
1583443840.4498446,48,-7,90,23,70,127,123,65
1583443840.4498446,18,13,3,9,23,-20,-12,-5
1583443840.4642177,-22,-14,-123,-23,71,-25,-21,-2
1583443840.4642177,43,24,0,21,46,71,54,32
1583443840.4709494,-86,-25,-7,10,-18,-47,-26,-34
1583443840.4709494,97,93,62,-2,-8,-4,-8,-30
1583443840.4867127,34,-3,2,-2,-32,-4,-11,-23
1583443840.4867127,-99,-29,-18,2,13,-2,-1,1
1583443840.4934275,-65,-15,71,-6,-11,9,7,-12
1583443840.4934275,78,20,37,-12,-94,-27,-33,-32
1583443840.5010276,71,-16,-15,-6,57,-68,-17,-20
1583443840.5010276,-51,8,21,4,-30,-12,15,1
1583443840.5098844,-18,-2,12,30,36,127,37,19
1583443840.5098844,-41,12,15,4,52,15,21,7
1583443840.524239,-21,32,58,4,127,9,-8,-3
1583443840.524239,-4,-7,-23,-15,-67,-22,-3,2
1583443840.530914,40,-18,-93,-9,127,57,31,22
1583443840.530914,-30,1,10,2,-38,-27,-21,-26
1583443840.5466826,-43,-31,-7,0,-4,-13,3,22
1583443840.5466826,20,24,36,6,18,-57,-15,-18
1583443840.5540552,-32,-18,-66,-16,-75,-50,-7,-10
1583443840.5540552,-128,-25,-29,-6,56,16,-9,-16
1583443840.5695913,100,37,71,-1,-37,-4,4,3
1583443840.5695913,-21,-10,61,13,3,-7,-4,-3
1583443840.5728707,17,0,62,5,11,5,13,27
1583443840.5728707,-76,8,10,-5,12,-7,-8,-10
1583443840.5867617,73,15,38,9,-7,19,8,-9
1583443840.5867617,5,-68,-128,-32,-105,-16,-10,-24
1583443840.5917284,18,19,-30,2,89,127,54,22
1583443840.5917284,-20,-19,-41,9,12,35,21,19
1583443840.6072347,-10,-10,-31,-19,-89,-55,-20,-5
1583443840.6072347,-30,-36,-52,25,-28,-32,-10,-14
1583443840.6141872,44,51,80,-22,-87,-69,57,37
1583443840.6141872,-5,-5,9,7,19,-42,-20,-15
1583443840.63049,-40,-21,-7,-15,-128,-128,-109,-43
1583443840.63049,36,-3,-52,35,127,127,122,59
1583443840.6346126,7,18,127,8,-47,-55,-28,-25
1583443840.6346126,-126,-87,-52,-17,-128,-128,-87,-27
1583443840.6475003,26,93,57,6,-24,38,51,-10
1583443840.6475003,-2,26,104,8,-42,-36,-9,-1
1583443840.652307,-60,-67,-10,-4,-29,-19,-20,-15
1583443840.652307,-24,-50,-27,-1,55,12,20,107
1583443840.6671393,124,81,7,15,-16,2,-9,-109
1583443840.6671393,-67,-49,-5,-7,5,14,-3,-4
1583443840.6745,-52,-10,86,-16,-15,-3,-9,10
1583443840.6745,-13,-31,-72,1,32,10,5,1
1583443840.6909964,-74,-15,40,3,15,-6,-11,6
1583443840.6909964,87,5,-29,-12,-59,-77,-14,-7
1583443840.6948056,6,-3,30,21,127,116,46,13
1583443840.6948056,8,11,86,12,127,119,44,17
1583443840.7071633,-5,-15,-82,-29,-11,-49,-37,-16
1583443840.7071633,-23,-14,24,6,-128,-128,-95,-30
1583443840.7124956,57,30,12,2,-44,-36,72,51
1583443840.7124956,-26,-13,19,-16,-98,-124,-47,-29
1583443840.7274885,-20,-17,7,7,-28,-49,6,10
1583443840.7274885,-26,-11,-84,-7,-6,-9,-61,-44
1583443840.7347846,52,8,-17,-22,-16,19,-2,-13
1583443840.7347846,38,41,127,19,21,19,17,21
1583443840.750591,-80,-11,-13,4,37,13,9,25
1583443840.750591,76,63,58,7,16,33,19,20
1583443840.7546513,38,13,72,5,17,18,20,18
1583443840.7546513,-3,-26,-37,-7,17,9,-5,1
1583443840.7669601,-64,-22,32,-1,15,8,2,-5
1583443840.7669601,6,-6,20,-8,-5,7,-1,4
1583443840.7721817,32,11,-27,-8,-69,-53,-1,3
1583443840.7721817,3,0,-4,10,42,65,28,18
1583443840.7872958,-19,-2,35,-10,-128,-128,-64,-20
1583443840.7872958,-9,-2,-7,-16,-103,-88,2,6
1583443840.7948205,5,0,-2,20,127,127,94,26
1583443840.7948205,-9,3,12,6,-66,-71,-29,-19
1583443840.810341,-10,-10,-25,-20,-50,-66,-35,-15
1583443840.810341,7,1,14,0,-27,-37,-18,-2
1583443840.8145847,-38,-11,-11,-3,-68,-75,-31,-21
1583443840.8145847,13,-14,26,-15,59,42,18,37
1583443840.8263242,50,23,-29,-4,-24,-7,-12,-33
1583443840.8263242,-26,-10,-38,-5,-10,-11,-14,-23
1583443840.8318887,-19,-12,-20,-6,-16,-8,-5,-7
1583443840.8318887,-95,-29,-9,-3,6,18,16,27
1583443840.8551166,-1,26,-75,13,9,15,8,-53
1583443840.8551166,-38,-10,8,0,-9,5,-11,-14
1583443840.8603253,-8,-3,-10,0,7,10,4,27
1583443840.8603253,-12,-6,13,-1,1,-1,-3,-17
1583443840.869506,-1,-12,-26,-1,4,1,6,-6
1583443840.869506,-4,3,0,2,-21,-7,-5,-8
1583443840.8734121,2,-1,-3,1,14,27,6,-7
1583443840.8734121,1,1,4,-1,7,-3,0,-7
1583443840.8859775,-8,-2,-4,-13,-91,-66,-32,-15
1583443840.8859775,15,1,17,16,72,107,43,16
1583443840.8917592,8,9,5,3,5,2,7,5
1583443840.8917592,-7,-2,-5,-3,10,-19,-14,-9
1583443840.9069765,9,1,8,8,-18,-30,-10,-3
1583443840.9069765,-11,0,-6,-22,-14,-13,-3,0
1583443840.9143946,-1,-5,4,1,-21,-8,-5,-15
1583443840.9143946,-10,-1,1,0,16,1,-6,-15
1583443840.9300926,-20,-3,-1,1,-6,-1,-2,-28
1583443840.9300926,3,-3,-6,-2,-11,-2,4,26
1583443840.935281,-6,-4,-7,-1,3,0,-4,-21
1583443840.935281,14,-1,-1,0,1,-1,4,-19
1583443840.946926,50,-8,-2,4,1,3,7,75
1583443840.946926,-23,3,-6,7,-18,-3,-5,-5
1583443840.9519496,-32,-7,-2,-11,-11,-7,-22,-93
1583443840.9519496,1,23,11,5,14,1,26,127
1583443840.9665396,-2,19,5,-5,-7,5,-5,-42
1583443840.9665396,-5,-5,-4,-1,-5,-1,-3,-32
1583443840.9743917,-10,-9,-6,-12,-4,-4,-5,-7
1583443840.9743917,-9,-2,1,10,12,1,-9,-16
1583443840.9903133,2,-3,2,-3,-1,2,2,-5
1583443840.9903133,-1,2,-6,-7,-5,-10,-10,-4
1583443840.9943237,0,-1,-2,1,-4,-8,-5,-4
1583443840.9943237,-22,-9,-1,3,-11,-13,-5,-5
1583443841.0073066,9,0,5,3,42,14,2,-2
1583443841.0073066,1,6,-10,-12,-17,-15,-8,0
1583443841.0125327,-1,2,4,13,-6,-11,-7,1
1583443841.0125327,-4,-6,-4,4,-3,-6,-2,4
1583443841.0274858,-2,-7,-7,-22,1,-10,-5,-1
1583443841.0274858,0,9,18,23,-8,4,0,0
1583443841.034915,-2,-8,-7,11,13,-2,1,-5
1583443841.034915,-7,-21,-7,-11,-2,2,0,4
1583443841.0500016,2,75,7,-52,2,-9,-4,-9
1583443841.0500016,4,8,3,17,-8,-7,-7,-19
1583443841.0556965,5,28,2,0,-7,2,-2,-10
1583443841.0556965,-9,-7,6,12,-22,2,-4,-23
1583443841.0655081,9,-16,-9,32,33,8,10,52
1583443841.0655081,-1,6,0,-14,5,-11,0,-7
1583443841.070985,-4,9,4,4,10,16,1,-25
1583443841.070985,5,-4,2,-2,7,-2,2,42
1583443841.0865622,2,1,0,-7,1,-3,-1,6
1583443841.0865622,-8,3,-2,-12,-35,-4,-4,-10
1583443841.0942245,9,-4,8,-2,31,8,6,17
1583443841.0942245,-12,4,10,54,20,6,-3,-12
1583443841.1100507,3,3,-4,-31,-59,-26,-8,-3
1583443841.1100507,4,5,0,-6,11,2,5,9
1583443841.1144044,3,-1,-3,-10,-27,8,4,1
1583443841.1144044,6,-6,-3,7,8,6,3,-3
1583443841.1273024,-1,-4,1,3,-9,-4,-4,1
1583443841.1273024,-11,3,-4,8,3,5,-3,-5
1583443841.1329653,0,-16,-3,-13,30,1,-1,-5
1583443841.1329653,-11,-14,-1,6,-70,-4,3,-7
1583443841.1478357,-6,6,8,4,12,0,-4,-18
1583443841.1478357,12,12,-1,17,3,-8,3,27
1583443841.155082,1,-1,0,5,-5,8,3,-9
1583443841.155082,1,-3,0,-4,-7,-7,-4,-14
1583443841.1695628,3,-2,2,-6,2,-3,1,0
1583443841.1695628,-3,-2,-4,-5,-9,-7,-6,-5
1583443841.170545,-1,0,2,3,-6,3,2,-3
1583443841.170545,-1,-3,-3,3,10,-3,-4,-1
1583443841.1856742,-2,-3,4,3,4,-5,-3,-2
1583443841.1856742,-4,-1,3,-4,-4,0,-5,-2
1583443841.191377,0,1,8,8,10,-8,-1,2
1583443841.191377,1,-5,2,-3,24,9,7,-2
1583443841.2059238,-1,0,-3,5,-23,-2,0,2
1583443841.2059238,-4,1,0,-7,-15,3,-3,-3
1583443841.2134938,-8,2,0,7,18,3,-3,-5
1583443841.2134938,1,-1,1,1,-25,-2,6,25
1583443841.2290735,-1,1,-1,9,29,0,1,-1
1583443841.2290735,-10,-2,1,-19,-10,2,-4,-5
1583443841.231281,0,4,-4,20,-15,-3,-2,-1
1583443841.231281,-1,4,1,3,32,-2,-2,-3
1583443841.244945,2,-5,-5,8,-29,-6,-6,-1
1583443841.244945,9,-3,1,-25,17,1,4,21
1583443841.25098,-10,0,2,8,7,-4,-4,-13
1583443841.25098,3,-3,3,-7,7,-2,-1,3
1583443841.2659454,1,1,-1,1,1,2,1,1
1583443841.2659454,4,1,3,2,4,3,5,0
1583443841.2735665,-4,3,-5,2,-1,-5,-5,-5
1583443841.2735665,1,-1,1,-3,-5,0,0,0
1583443841.2890809,1,-4,4,7,27,-4,0,3
1583443841.2890809,-8,-1,-10,30,15,6,-1,-7
1583443841.2909138,-5,4,0,14,9,-1,-1,-12
1583443841.2909138,-1,-4,0,3,-6,2,4,4
1583443841.3049283,-2,2,4,9,-4,-1,-1,-8
1583443841.3049283,-1,-5,1,-5,-7,-4,-5,-2
1583443841.3109927,1,7,-4,-1,0,0,2,-5
1583443841.3109927,-6,-22,2,-3,-6,-1,-3,-33
1583443841.3259344,11,-1,-8,2,-10,-1,3,33
1583443841.3259344,-10,6,16,-4,8,-5,-4,-5
1583443841.3339872,2,-22,-14,0,2,2,-1,1
1583443841.3339872,-1,-3,-6,-1,-6,-6,-4,-8
1583443841.349102,-3,1,5,11,12,-1,2,-2
1583443841.349102,1,1,-3,3,3,-6,1,-5
1583443841.3513727,-3,6,1,1,-8,-1,2,-1
1583443841.3513727,0,-7,-1,-6,24,3,1,-1
1583443841.364836,1,-4,-1,5,-10,3,1,5
1583443841.364836,0,1,-3,-26,-9,-5,-6,-8
1583443841.3709533,0,2,5,21,1,4,1,-3
1583443841.3709533,4,0,-1,-3,3,1,8,6
1583443841.3859563,-1,-2,0,-1,2,0,0,-1
1583443841.3859563,1,-3,-3,-8,-3,-4,-6,1
1583443841.3934884,1,5,-2,-3,-12,3,1,-2
1583443841.3934884,2,-4,6,-2,1,2,0,-1
1583443841.4084322,-3,-3,-4,-4,3,-2,-2,-4
1583443841.4084322,-3,2,-5,-7,-1,1,-6,-4
1583443841.4163,4,0,2,-9,-4,-1,2,3
1583443841.4163,1,-5,3,7,-7,0,0,1
1583443841.4248314,2,2,-1,9,-1,-3,-1,-8
1583443841.4248314,2,-11,19,-4,-6,-3,4,17
1583443841.431017,-5,1,-3,1,3,-6,-3,-8
1583443841.431017,-3,-1,2,5,8,1,4,0
1583443841.4464188,0,-3,-1,-6,-1,0,-1,-3
1583443841.4464188,-3,1,0,0,9,0,-4,-3
1583443841.4549518,9,-7,-5,1,-10,1,8,49
1583443841.4549518,3,9,1,0,-2,2,-2,4
1583443841.4684567,-3,-14,-10,0,4,-5,-3,-8
1583443841.4684567,-4,-2,0,7,2,-4,-4,-6
1583443841.4759665,-3,2,1,-4,-4,-2,-3,-7
1583443841.4759665,-2,-3,2,4,5,1,4,-2
1583443841.484921,-3,-1,-5,-10,-8,-9,-5,1
1583443841.484921,-4,2,-2,4,3,7,-4,-2
1583443841.4909408,2,0,1,3,2,-3,-4,-1
1583443841.4909408,2,-3,-1,-5,-24,3,5,4
1583443841.5059042,-1,0,2,-6,20,1,-2,0
1583443841.5059042,0,1,1,16,21,10,0,-1
1583443841.5140717,-1,5,4,-1,16,-3,1,-4
1583443841.5140717,5,1,5,-17,-17,-3,5,11
1583443841.5292835,-18,-7,-9,22,1,-7,-6,-23
1583443841.5292835,-3,-10,-15,-7,6,7,1,-17
1583443841.5371444,2,-3,13,-8,0,-7,-7,34
1583443841.5371444,10,7,25,-7,1,9,5,-2
1583443841.5529923,7,-38,-11,28,-17,3,1,0
1583443841.5529923,-4,41,-23,-21,18,10,1,4
1583443841.5581062,26,16,8,11,28,9,13,41
1583443841.5581062,1,-38,-25,-17,4,4,-2,4
1583443841.5697649,-4,-10,-5,-29,-43,-7,0,-30
1583443841.5697649,-5,4,5,-50,-17,-20,-13,-38
1583443841.575322,-3,-3,13,8,-30,-7,-3,-17
1583443841.575322,37,7,23,-8,30,20,40,127
1583443841.5894907,-3,18,-11,-37,14,4,-3,-28
1583443841.5894907,23,-3,40,35,-29,6,3,7
1583443841.5972536,-8,11,0,-47,-22,6,2,-42
1583443841.5972536,3,-16,-5,46,34,-7,-13,-21
1583443841.6130967,27,-4,-1,0,-54,8,22,48
1583443841.6130967,-42,-2,-21,-77,-37,-10,-20,-73
1583443841.6183677,38,3,-6,-25,-3,3,7,53
1583443841.6183677,-57,-19,3,-4,0,11,15,48
1583443841.6297746,-28,-26,-4,-11,1,0,4,-35
1583443841.6297746,-6,13,15,-3,-9,9,1,-37
1583443841.6353388,-37,5,-13,19,21,6,-3,-8
1583443841.6353388,-24,-5,8,101,-6,-26,-23,-51
1583443841.6489992,61,35,5,-50,-13,1,22,-37
1583443841.6489992,28,10,4,64,-23,-14,16,44
1583443841.6572275,-68,-21,-1,-13,5,10,-39,-125
1583443841.6572275,99,35,35,37,31,9,31,44
1583443841.6728055,78,20,8,-28,4,-4,60,127
1583443841.6728055,-18,-44,26,8,-46,-8,-20,-67
1583443841.6777127,2,23,3,-31,-22,-3,21,-30
1583443841.6777127,34,4,7,-27,-7,4,22,50
1583443841.6897767,-20,15,-12,90,-11,-1,-13,-49
1583443841.6897767,-18,-7,-20,68,17,-2,-14,-37
1583443841.6955323,-9,-3,-12,-5,44,7,-8,-29
1583443841.6955323,10,3,12,62,-35,4,8,16
1583443841.709448,-9,-13,-23,55,27,-8,-8,32
1583443841.709448,19,14,12,49,30,-26,-1,-31
1583443841.716929,0,4,26,-42,0,127,39,5
1583443841.716929,6,-5,-16,19,-25,-10,4,61
1583443841.7332041,57,13,17,-23,19,2,47,112
1583443841.7332041,29,5,12,79,-7,-6,30,127
1583443841.7376363,-9,-4,-8,23,21,19,-8,-56
1583443841.7376363,-47,-5,-7,-15,-12,-14,-19,-98
1583443841.74947,13,2,-25,13,41,11,12,-63
1583443841.74947,-11,14,-1,-50,-34,-21,-6,37
1583443841.7544656,-25,-11,-5,12,14,10,-2,-95
1583443841.7544656,-12,-7,9,-12,-15,-1,-7,2
1583443841.769619,-15,13,-12,-17,-17,-3,-9,1
1583443841.769619,-5,12,6,-23,-15,-1,-1,-1
1583443841.7771394,1,-4,-7,30,28,1,-5,84
1583443841.7771394,-17,3,4,29,2,-14,-23,-101
1583443841.7931774,9,0,0,-59,-25,1,8,46
1583443841.7931774,-12,-10,-15,-128,-5,-15,-17,36
1583443841.7975566,-6,-1,2,-105,13,1,-14,-44
1583443841.7975566,9,-6,1,64,20,0,4,-32
1583443841.809837,27,5,15,-119,-5,-13,-1,-128
1583443841.809837,4,9,10,-5,-27,12,12,-6
1583443841.8149238,-9,-1,3,29,1,5,-6,-29
1583443841.8149238,-10,-15,-20,-29,-20,-8,-11,-16
1583443841.8301282,5,-1,-1,-40,-1,-12,-2,-42
1583443841.8301282,-6,4,-7,9,-20,-15,-12,-15
1583443841.8367076,-6,-1,9,86,-19,13,-6,-37
1583443841.8367076,-1,-12,-11,53,12,9,10,48
1583443841.852703,1,3,-7,-67,-17,-10,-5,31
1583443841.852703,10,-5,-20,-93,-12,-6,-2,-3
1583443841.8570411,-25,-12,-19,127,6,-2,-25,-74
1583443841.8570411,31,-1,16,26,10,9,23,127
1583443841.8697119,-7,-1,11,3,18,14,-5,-64
1583443841.8697119,17,2,-15,15,-3,6,1,-38
1583443841.8750021,-1,-7,8,-26,-2,2,2,4
1583443841.8750021,13,4,9,20,-4,-9,-12,-40
1583443841.8896449,20,-3,-11,-10,-18,-8,15,-21
1583443841.8896449,-10,8,-1,-20,-2,7,-5,-46
1583443841.8972561,-10,3,-4,-43,-14,-5,3,1
1583443841.8972561,25,-2,12,-20,-9,-9,1,56
1583443841.913012,-8,-11,-20,3,2,-4,-10,38
1583443841.913012,42,11,9,96,22,-2,27,2
1583443841.9173932,-14,-7,-1,-16,-9,6,-13,-52
1583443841.9173932,26,2,0,84,14,10,1,0
1583443841.9299383,16,7,4,-85,-8,-9,4,-27
1583443841.9299383,-42,-8,-13,-61,-11,-11,-6,-88
1583443841.9353037,18,15,8,27,-26,-16,7,84
1583443841.9353037,38,-1,4,-6,16,10,23,8
1583443841.9491181,0,0,-3,-26,33,2,2,27
1583443841.9491181,-10,10,3,13,-12,-11,6,-8
1583443841.9655108,-8,-2,2,1,-5,5,-3,-26
1583443841.9655108,10,1,7,-32,5,5,-1,19
1583443841.9720676,-3,-2,-14,-59,4,2,-4,-38
1583443841.9720676,-20,-4,-18,-128,-67,-26,-20,8
1583443841.9769526,18,14,9,44,-13,-1,14,-25
1583443841.9769526,37,-2,1,12,18,10,21,91
1583443841.9887838,-13,-11,-24,-59,-15,-2,-10,-18
1583443841.9887838,-18,6,7,51,-17,-15,-19,-39
1583443841.9942203,1,-19,-6,20,0,11,7,26
1583443841.9942203,5,2,10,34,17,21,14,23
1583443842.009511,21,-3,8,-14,44,6,13,-5
1583443842.009511,-22,0,-16,17,-20,-11,-24,-67
1583443842.0169144,29,10,19,-79,-3,7,11,43
1583443842.0169144,-13,-3,0,23,5,-9,-23,-24
1583443842.032842,16,8,26,-93,9,26,32,56
1583443842.032842,-11,6,-4,96,32,-4,-10,-3
1583443842.0394838,16,6,3,55,-36,-4,3,2
1583443842.0394838,4,0,2,-55,-2,-1,7,-10
1583443842.049956,-3,-6,1,0,47,-6,-9,-26
1583443842.049956,-6,11,13,-128,-116,-25,-8,-3
1583443842.0553842,51,6,19,84,29,4,37,82
1583443842.0553842,-4,2,-7,-82,-23,-4,0,-17
1583443842.0699306,-12,-9,-4,88,-43,-12,-5,12
1583443842.0699306,6,2,9,-52,-5,-2,7,13
1583443842.076649,-7,-13,-17,125,1,0,-6,-22
1583443842.076649,13,7,17,-38,15,2,5,17
1583443842.0926356,-11,-3,8,58,37,9,16,34
1583443842.0926356,-1,-2,-20,-57,3,16,-4,-21
1583443842.0965185,23,11,5,-14,-17,-6,11,-1
1583443842.0965185,0,3,13,82,-28,-7,7,17
1583443842.1091683,21,-11,-14,50,1,10,1,-7
1583443842.1091683,2,7,-5,-56,13,-10,-5,19
1583443842.1147587,-8,5,1,-42,-15,-13,-12,-42
1583443842.1147587,18,-2,-5,86,-6,-3,7,68
1583443842.1296637,-4,-3,-6,-40,5,0,4,33
1583443842.1296637,-15,-4,-8,36,-11,-10,-19,6
1583443842.1369746,-17,-5,10,48,30,6,-10,26
1583443842.1369746,32,-7,-16,53,1,7,12,-49
1583443842.1522396,-14,5,2,-51,-2,1,-3,-73
1583443842.1522396,12,2,-4,-6,-25,-12,7,65
1583443842.1555102,-9,2,-4,-41,-19,-10,-12,-29
1583443842.1555102,-1,-5,-3,-18,-18,-9,-7,18
1583443842.16957,-15,-2,-17,109,11,1,-11,-37
1583443842.16957,-1,-2,4,-43,-14,-1,8,-2
1583443842.174312,-19,-7,0,89,31,10,-11,-54
1583443842.174312,5,-2,0,-128,9,6,3,0
1583443842.189548,-4,-4,-6,98,-5,-15,-4,116
1583443842.189548,8,8,13,-17,-6,-13,6,38
1583443842.197137,-2,-1,11,48,22,19,12,85
1583443842.197137,24,2,9,105,27,-3,5,74
1583443842.2124465,-7,-5,3,-50,-10,6,-4,-43
1583443842.2124465,-6,5,13,76,35,10,15,46
1583443842.2152238,6,-2,-1,27,-20,-11,-21,-38
1583443842.2152238,3,-1,-1,-23,-10,-8,0,-3
1583443842.2281945,-9,5,7,-30,-5,-7,-8,-27
1583443842.2281945,-20,-11,-17,-49,66,-3,-16,-22
1583443842.2338629,9,-3,-12,78,3,-7,4,15
1583443842.2338629,4,-5,2,5,32,9,4,15
1583443842.248745,2,5,1,-45,-6,1,2,-45
1583443842.248745,-14,-8,-20,31,4,5,-18,-16
1583443842.2568045,-2,-1,-13,25,1,-8,-2,-7
1583443842.2568045,8,0,-1,-61,-20,-8,-1,10
1583443842.272819,4,1,10,-6,5,7,-4,-1
1583443842.272819,-1,6,-5,-15,-34,-2,4,28
1583443842.2778397,5,-1,4,-28,47,8,-2,4
1583443842.2778397,-6,-10,3,20,19,-3,-1,-32
1583443842.2895472,10,7,-6,-4,30,5,6,31
1583443842.2895472,4,1,8,34,30,-10,-16,-12
1583443842.295046,-12,-3,-7,-13,-2,7,-6,-29
1583443842.295046,-18,-7,-2,44,-5,0,19,62
1583443842.3095284,-6,-1,-5,-40,-10,-13,4,12
1583443842.3095284,1,5,4,-59,3,17,-2,-12
1583443842.317267,-1,3,6,-17,-16,-17,-11,-29
1583443842.317267,-7,-9,-11,12,-2,-6,-2,31
1583443842.3331625,-5,-4,-14,-1,-21,-5,-4,-46
1583443842.3331625,-2,10,-5,-55,-14,-9,6,-26
1583443842.3385367,11,3,3,17,-6,0,-3,7
1583443842.3385367,0,-3,0,-54,-6,-3,-4,4
1583443842.3483796,-2,-5,-5,17,10,14,5,2
1583443842.3483796,-2,4,0,3,3,3,0,-14
1583443842.3539484,-4,-2,-9,24,-17,-17,-8,-12
1583443842.3539484,7,-1,-2,-6,-1,2,7,32
1583443842.3699121,-1,-1,-23,-43,-3,-20,-19,-19
1583443842.3699121,0,3,4,35,19,-5,7,2
1583443842.3769739,-2,-1,2,-46,-7,8,6,1
1583443842.3769739,0,-1,-2,49,-6,-2,-1,4
1583443842.3916686,4,1,4,21,-11,5,1,59
1583443842.3916686,5,1,-3,-71,-4,-14,2,-8
1583443842.3997762,2,3,-3,11,-6,-12,0,9
1583443842.3997762,-12,-10,-7,-83,-16,3,-12,-16
1583443842.4098308,5,9,-2,3,17,-1,7,30
1583443842.4098308,-2,1,-1,-39,-12,-7,-4,-6
1583443842.41472,-12,-5,4,-33,8,12,2,31
1583443842.41472,13,-2,3,5,7,5,2,-21
1583443842.4299312,-5,0,-6,-66,-11,-4,-3,8
1583443842.4299312,-5,4,1,-17,-5,-2,-6,-33
1583443842.4373772,9,9,12,9,-8,-5,9,-5
1583443842.4373772,-5,-2,-11,-12,7,1,-7,-8
1583443842.4521341,16,1,-5,-39,7,10,16,21
1583443842.4521341,-1,2,-2,-28,-10,-3,5,-5
1583443842.459856,5,3,11,-20,2,5,-3,15
1583443842.459856,10,-4,1,65,11,-9,0,8
1583443842.4755092,4,-1,-7,-8,6,-4,-5,-30
1583443842.4755092,-1,6,4,-39,-45,-3,5,-1
1583443842.4799728,0,0,-2,5,7,10,6,11
1583443842.4799728,-7,-8,0,-34,-1,6,-4,-7
1583443842.4891236,-16,-5,-18,31,2,-12,-12,-15
1583443842.4891236,6,4,-2,1,-8,5,17,22
1583443842.4963083,5,0,4,-2,0,7,1,7
1583443842.4963083,2,-3,0,-9,7,5,-5,-23
1583443842.5121772,4,3,-1,-47,-16,-5,1,16
1583443842.5121772,-10,4,4,6,3,0,2,3
1583443842.5197582,1,2,-1,-9,1,1,-1,-12
1583443842.5197582,-4,-5,-5,-14,0,-1,-1,-5
1583443842.535376,1,0,-4,-3,-4,3,-2,10
1583443842.535376,-20,-4,-3,23,-2,-7,-12,-25
1583443842.5405543,-7,1,-8,-51,-1,-5,-3,-13
1583443842.5405543,9,9,9,-6,-29,-13,5,6
1583443842.5488095,-3,0,9,-36,3,-3,3,22
1583443842.5488095,-1,4,-2,43,4,4,-1,-7
1583443842.5563831,-6,-2,-3,2,1,-5,-4,1
1583443842.5563831,0,2,-1,-73,-21,-5,5,4
1583443842.5721824,-22,-4,6,54,-4,2,-5,-18
1583443842.5721824,11,5,-12,43,-17,2,10,-24
1583443842.5806623,-6,1,6,-14,4,4,-7,-12
1583443842.5806623,0,-4,4,33,4,7,-3,-5
1583443842.5945685,-6,-1,10,-13,-7,0,1,-23
1583443842.5945685,-4,1,6,38,-18,5,7,5
1583443842.597243,5,0,10,45,-17,-6,3,19
1583443842.597243,0,-6,-1,64,30,13,7,9
1583443842.608643,0,0,1,-32,5,-3,-6,-7
1583443842.608643,0,3,-8,-21,-9,-3,0,-4
1583443842.6168702,2,1,7,14,-4,1,0,-5
1583443842.6168702,3,0,8,8,1,3,4,3
1583443842.6312413,-3,2,-3,-3,-15,-8,-7,-4
1583443842.6312413,-1,4,3,-13,-8,0,3,4
1583443842.639267,-3,-3,4,32,12,0,0,-5
1583443842.639267,-2,-1,1,36,-6,0,-6,-3
1583443842.6552818,-3,-4,-1,-10,35,-9,-3,5
1583443842.6552818,3,6,-3,-27,-31,5,11,1
1583443842.6602101,0,-2,2,19,22,5,-7,-1
1583443842.6602101,8,-3,3,54,5,-3,1,1
1583443842.6694407,2,-3,0,3,22,8,5,24
1583443842.6694407,-7,2,-3,-17,-17,-5,-7,-15
1583443842.6765637,7,2,3,11,-3,1,0,5
1583443842.6765637,0,-5,0,35,11,1,1,7
1583443842.6934245,0,-7,-9,55,12,11,1,10
1583443842.6934245,-12,0,-1,-12,1,-1,-4,-6
1583443842.6995187,2,-1,2,24,-2,6,-1,-5
1583443842.6995187,-4,-3,-1,15,2,-3,-3,-20
1583443842.71481,0,0,-6,-13,-5,0,-2,-14
1583443842.71481,-2,4,-3,1,-4,5,-4,-5
1583443842.7191448,2,1,-2,0,-5,-1,1,1
1583443842.7191448,0,-3,-5,9,2,-4,3,4
1583443842.7297318,-4,-3,-2,-22,-3,-4,-6,-2
1583443842.7297318,1,0,2,35,19,1,2,2
1583443842.7373314,2,0,4,-8,-4,0,4,2
1583443842.7373314,0,3,-2,34,-33,-13,-8,-3
1583443842.7521224,2,4,2,-50,-21,7,0,0
1583443842.7521224,3,3,4,-35,-4,-6,0,1
1583443842.7595198,1,-4,-3,41,-13,2,8,1
1583443842.7595198,-2,-4,1,-27,13,6,1,-5
1583443842.775347,4,-3,-4,1,11,5,-13,-1
1583443842.775347,-3,-3,-6,23,10,-13,10,50
1583443842.7797015,-3,0,4,-24,0,10,3,-16
1583443842.7797015,-3,-4,1,7,10,1,-6,-13
1583443842.7897723,3,1,-5,-26,-9,-3,-7,-2
1583443842.7897723,-3,3,-5,-2,-2,-3,-2,-2
1583443842.7971303,0,2,-1,7,0,0,-3,-4
1583443842.7971303,-6,-4,4,4,-6,-1,-1,-4
1583443842.8123033,2,0,1,-12,20,5,-1,14
1583443842.8123033,-4,1,-6,-18,-18,-4,0,-1
1583443842.8200722,-1,-6,2,18,9,3,1,-5
1583443842.8200722,3,-2,-2,-12,-10,-3,0,0
1583443842.8364246,0,-2,-4,0,-2,2,1,-1
1583443842.8364246,-3,0,0,-16,1,-5,-5,-9
1583443842.8425558,-1,-2,-1,11,-4,-2,-8,3
1583443842.8425558,6,0,4,10,2,2,22,16
1583443842.8489974,-2,1,-3,-5,7,-1,-4,-4
1583443842.8489974,-4,0,-2,1,2,-5,-5,-4
1583443842.856853,1,3,0,7,1,10,-2,-4
1583443842.856853,2,-3,0,-6,-9,-13,-5,-1
1583443842.8722713,3,4,4,-25,11,-3,1,2
1583443842.8722713,1,2,4,3,-5,11,2,-1
1583443842.8798215,2,-2,2,6,-1,-3,0,-3
1583443842.8798215,2,-3,6,-8,2,3,1,4
1583443842.8954856,-3,-1,-2,-9,-9,-2,-6,-3
1583443842.8954856,-5,-1,0,-15,-2,-2,-1,-3
1583443842.8999307,0,-1,4,2,-2,-4,0,1
1583443842.8999307,2,-3,-1,-6,-1,2,0,2
1583443842.9099872,1,-2,-3,-6,-4,3,0,4
1583443842.9099872,0,1,2,-11,-5,1,-5,-11
1583443842.9167612,1,-1,5,11,19,0,4,1
1583443842.9167612,0,-1,-1,-11,-2,1,0,-1
1583443842.9323938,-2,4,-5,-5,-17,1,-5,-5
1583443842.9323938,0,0,1,0,5,-10,-6,-3
1583443842.9400783,-1,0,-1,-6,7,5,12,2
1583443842.9400783,-1,-6,-5,-13,-5,-8,-2,-5
1583443842.9554782,-2,4,0,-6,-18,-9,-5,-5
1583443842.9554782,-3,4,7,12,34,12,5,0
1583443842.9600792,-2,0,-9,-10,8,23,1,-3
1583443842.9600792,3,1,2,-2,8,-9,-3,-3
1583443842.969264,2,1,-2,-6,7,2,9,6
1583443842.969264,-4,3,5,4,-4,1,-2,-2
1583443842.9766548,0,0,-2,1,2,-6,-2,-1
1583443842.9766548,-1,-2,5,-2,-1,-2,-1,2
1583443842.9923627,1,1,5,20,5,0,-2,-5
1583443842.9923627,3,0,3,-5,3,-1,1,1
1583443842.9994514,0,2,1,-1,-6,-1,-4,1
1583443842.9994514,2,-1,3,4,5,1,1,0
1583443843.0154855,4,-1,-6,-31,-3,2,0,2
1583443843.0154855,0,2,9,37,13,1,2,-1
1583443843.0202646,1,2,3,-12,-33,-4,-4,-2
1583443843.0202646,0,-5,-1,10,17,3,0,1
1583443843.0287955,1,0,-11,-19,4,5,-2,1
1583443843.0287955,-8,-9,-16,30,-12,-10,-2,-9
1583443843.037022,3,3,5,-6,6,-1,4,7
1583443843.037022,3,0,16,34,19,9,3,1
1583443843.0520296,0,1,-4,-22,-21,-1,-6,-2
1583443843.0520296,1,-1,-4,3,28,6,5,3
1583443843.0597293,1,1,1,1,2,-5,0,0
1583443843.0597293,-2,-1,2,18,-13,-3,-2,2
1583443843.075587,-2,0,-10,-59,-30,-8,-6,-3
1583443843.075587,-4,0,-2,14,0,-8,-6,-6
1583443843.0807612,-1,-4,7,43,-3,-4,0,3
1583443843.0807612,2,-3,0,-12,0,44,7,5
1583443843.089375,-2,3,4,-16,9,2,-3,-4
1583443843.089375,3,1,7,24,8,9,5,3
1583443843.0963235,-8,-3,-10,-25,-20,-14,-4,-4
1583443843.0963235,1,-2,1,-5,-1,-10,-3,3
1583443843.1118243,5,2,2,-22,-2,13,7,3
1583443843.1118243,-3,0,3,-3,28,3,3,0
1583443843.1195533,0,3,-7,-5,-29,0,1,-4
1583443843.1195533,0,-5,-2,13,-5,-2,-5,-2
1583443843.1345656,5,3,3,-28,6,3,7,7
1583443843.1345656,1,2,0,92,37,8,-3,-2
1583443843.1428928,-6,2,21,-2,-3,-1,-2,-9
1583443843.1428928,3,3,12,-9,4,-1,3,4
1583443843.150563,2,1,-6,-22,-6,3,-4,2
1583443843.150563,4,0,-2,2,-2,-1,4,2
1583443843.1569111,4,1,3,6,1,-3,-1,0
1583443843.1569111,0,-14,0,-14,10,-3,-5,0
1583443843.17128,1,0,-5,2,-4,1,1,3
1583443843.17128,-1,0,-7,17,-3,-6,-6,-3
1583443843.1791239,2,2,6,19,18,1,7,5
1583443843.1791239,0,-5,-11,-13,-2,5,-3,1
1583443843.1945326,-4,-6,10,13,-21,-7,-4,-5
1583443843.1945326,2,10,-5,-45,8,5,-3,1
1583443843.1994615,6,6,16,50,24,3,5,5
1583443843.1994615,4,-9,17,-21,-3,6,6,6
1583443843.2089736,-3,-3,-36,-14,-26,-4,-7,-7
1583443843.2089736,5,-24,-8,-18,17,3,4,7
1583443843.2165449,7,32,-63,9,9,-3,-3,-5
1583443843.2165449,15,1,-1,7,-16,-9,-5,1
1583443843.2319767,-3,-13,12,-23,18,2,6,40
1583443843.2319767,-21,-24,-54,-13,-4,-8,-15,-30
1583443843.2394214,9,8,35,60,12,8,3,15
1583443843.2394214,4,12,-23,-4,-10,-8,-11,-9
1583443843.2544315,-14,14,16,2,17,9,5,-12
1583443843.2544315,11,33,3,-24,4,4,0,0
1583443843.2587805,9,2,-46,-128,23,15,8,5
1583443843.2587805,21,12,2,127,68,10,15,13
1583443843.2694557,-28,17,24,11,-41,20,9,-24
1583443843.2694557,-10,10,15,-39,47,6,-4,-18
1583443843.2763062,24,-8,-5,127,3,10,7,11
1583443843.2763062,-2,-9,-24,-128,-15,-7,-9,-5
1583443843.2916527,5,-1,-11,-40,-38,-18,-2,-7
1583443843.2916527,8,0,-5,-123,7,8,3,-3
1583443843.2994459,-8,2,37,-54,47,14,6,7
1583443843.2994459,11,19,-9,-6,-65,2,-2,4
1583443843.3143382,-6,-9,11,-78,0,0,-1,2
1583443843.3143382,40,-3,72,41,8,-10,-8,-2
1583443843.322725,15,-53,25,61,8,-12,-5,1
1583443843.322725,28,-83,-45,34,-17,-12,-9,-19
1583443843.3294847,-41,11,51,33,15,20,7,4
1583443843.3294847,12,-12,-39,-3,-29,-28,-12,9
1583443843.3369973,0,-35,-73,-128,-36,-32,-17,-20
1583443843.3369973,17,-13,-14,37,-26,0,-6,1
1583443843.3513713,22,-25,-53,-75,40,21,14,33
1583443843.3513713,-54,0,26,17,24,14,-6,-27
1583443843.3593187,22,6,-45,63,-3,5,1,2
1583443843.3593187,-11,-59,62,-5,24,-17,-12,-7
1583443843.3743804,11,-30,-34,127,-24,13,7,4
1583443843.3743804,-87,26,-12,22,5,0,4,10
1583443843.3828564,9,52,34,50,12,5,5,-5
1583443843.3828564,17,29,9,25,23,16,14,8
1583443843.3975084,3,1,39,-72,36,0,-4,1
1583443843.3975084,-8,-2,-16,-17,16,3,-9,-12
1583443843.4019926,5,-7,-52,127,33,-7,-8,-3
1583443843.4019926,-6,-7,-37,-81,-79,-20,-17,-15
1583443843.4118075,-12,-1,1,-47,-13,1,6,7
1583443843.4118075,22,2,37,-128,22,4,8,10
1583443843.4190915,1,-46,13,127,-36,-24,-10,31
1583443843.4190915,8,99,107,94,-17,-8,-6,-3
1583443843.4342,19,-11,-40,-53,-17,-7,-3,0
1583443843.4342,-1,-3,-13,-128,-17,-4,0,-7
1583443843.4431758,-26,-24,24,-40,-29,-18,-15,-3
1583443843.4431758,-15,9,-12,-87,-14,-6,-7,-27
1583443843.4580863,-13,11,-14,-121,-4,2,4,12
1583443843.4580863,15,-4,34,127,13,5,1,16
1583443843.4625757,4,-8,-23,29,57,0,-2,-4
1583443843.4625757,-37,-13,-57,-93,-82,-17,-7,-29
1583443843.4718304,-65,8,-50,59,-22,-13,-11,-9
1583443843.4718304,2,-24,1,26,-6,-3,2,-4
1583443843.4796574,-9,-13,30,127,5,-12,-11,-18
1583443843.4796574,-5,-28,-6,77,31,8,9,6
1583443843.4951906,0,11,36,-14,11,-5,-4,-1
1583443843.4951906,-5,-8,-11,10,27,5,2,10
1583443843.5028915,-11,-58,-13,-6,-28,0,0,-6
1583443843.5028915,2,-1,-10,-37,7,4,3,12
1583443843.5178685,-2,5,3,-128,-7,-15,-10,-8
1583443843.5178685,11,-7,9,10,-12,3,-2,-24
1583443843.5221071,-36,16,12,-11,23,15,19,51
1583443843.5221071,-6,-37,-24,31,-8,-15,-13,-10
1583443843.5323281,13,-17,-34,-23,-11,-4,-5,-28
1583443843.5323281,20,-3,7,-9,14,-4,5,28
1583443843.5394437,-3,0,-37,49,28,16,2,22
1583443843.5394437,12,-12,-37,127,-56,-7,-6,-4
1583443843.5547357,-14,-30,-4,-73,21,-15,-13,-20
1583443843.5547357,18,5,-32,34,7,-4,0,-3
1583443843.5626938,-16,4,-94,127,-40,-25,-23,-18
1583443843.5626938,-8,-13,4,-62,-12,-11,-5,-8
1583443843.5780888,3,-1,12,6,27,5,4,2
1583443843.5780888,-1,12,11,112,17,15,3,-1
1583443843.582264,2,-15,-22,82,1,3,2,2
1583443843.582264,-9,-7,-40,-13,-3,-11,-12,-11
1583443843.5920687,-2,2,-5,6,0,4,0,-3
1583443843.5920687,11,4,0,-63,6,-2,3,9
1583443843.5996106,0,3,18,55,10,11,2,-7
1583443843.5996106,-22,16,-48,-12,5,2,0,2
1583443843.6148891,-8,-71,-14,-15,-3,1,2,3
1583443843.6148891,26,-2,-3,109,10,1,-4,-14
1583443843.6231768,21,21,-44,-105,2,2,-5,-12
1583443843.6231768,0,-35,51,-28,18,18,6,27
1583443843.6381803,-31,9,-13,-71,20,6,7,-10
1583443843.6381803,-14,37,-60,-93,-12,-16,-5,8
1583443843.6424575,6,-13,46,39,-16,0,-2,-8
1583443843.6424575,-20,-22,6,-98,-16,-23,-16,-15
1583443843.6516051,-2,-2,2,110,-3,6,9,3
1583443843.6516051,3,2,7,-14,7,4,5,-1
1583443843.6596205,5,-2,-8,-20,-35,5,0,1
1583443843.6596205,0,6,-25,13,-65,-7,-1,5
1583443843.674463,5,36,42,55,33,13,0,-6
1583443843.674463,1,1,-4,17,-1,-3,-10,-18
1583443843.6826322,4,-8,4,10,1,4,3,2
1583443843.6826322,-9,-10,-2,-40,-27,-21,-15,-10
1583443843.6974113,8,-15,-15,-7,-7,-10,-7,-6
1583443843.6974113,-15,-22,-8,-4,13,2,7,11
1583443843.7022407,-30,-16,10,27,4,21,6,4
1583443843.7022407,30,15,34,-106,5,-3,-3,-11
1583443843.7117743,-9,77,41,114,13,3,-2,-5
1583443843.7117743,8,-17,26,46,25,8,3,4
1583443843.7196188,-6,7,-4,-98,-37,-7,-11,-11
1583443843.7196188,-11,2,32,-3,53,6,-1,-11
1583443843.73458,7,12,64,48,31,10,9,13
1583443843.73458,-16,-1,-8,-11,-31,-16,-10,-17
1583443843.7430794,-1,3,8,-27,2,-1,-6,-5
1583443843.7430794,6,20,42,-128,9,16,8,-3
1583443843.7573495,2,-8,12,-49,42,1,2,-1
1583443843.7573495,-12,2,13,-49,-59,-4,-2,-9
1583443843.7615235,1,-40,35,119,53,4,-2,8
1583443843.7615235,4,0,-21,43,-1,4,2,3
1583443843.7720294,-29,-36,-57,-128,-37,-28,-20,-17
1583443843.7720294,-9,-8,-22,-66,-31,0,0,-10
1583443843.779779,3,-8,18,18,25,6,10,-2
1583443843.779779,-5,-8,-28,94,-27,-24,-13,-11
1583443843.79482,0,3,-6,88,0,6,0,-1
1583443843.79482,-3,-16,51,0,-72,1,8,9
1583443843.802437,15,19,6,127,42,-6,0,1
1583443843.802437,4,9,3,-44,-16,-3,-1,-23
1583443843.8177044,7,-11,6,-29,-5,1,7,9
1583443843.8177044,2,5,-11,29,-7,-6,-4,2
1583443843.8231783,20,4,-28,37,5,-1,-3,-1
1583443843.8231783,-35,-51,-9,45,-50,-19,-14,-38
1583443843.8311875,-2,-4,-17,8,35,9,-1,-7
1583443843.8311875,8,20,-23,58,-24,3,0,8
1583443843.839476,1,-15,-11,-28,-24,-2,1,-5
1583443843.839476,0,22,-7,-41,-17,-7,-2,-4
1583443843.8544543,-4,37,-21,-38,65,-3,-3,-4
1583443843.8544543,-7,1,11,127,1,-6,-8,-7
1583443843.8629348,-20,4,20,123,41,6,0,5
1583443843.8629348,1,6,-8,30,-29,-11,-6,-3
1583443843.8781476,10,-6,-18,-56,16,3,2,-2
1583443843.8781476,12,-4,39,81,12,14,11,12
1583443843.8824341,-8,34,-71,-36,-25,-36,-17,-8
1583443843.8824341,-8,-54,-12,-29,27,2,-6,-14
1583443843.891777,15,7,26,-7,5,11,7,19
1583443843.891777,14,1,-1,-57,1,11,8,2
1583443843.8992321,-47,-10,-11,-90,-9,5,4,-3
1583443843.8992321,16,15,15,78,30,10,17,32
1583443843.9147255,65,-42,16,32,10,5,2,-5
1583443843.9147255,-9,70,-11,-58,-8,3,2,-11
1583443843.9231768,3,-1,9,15,38,4,-4,5
1583443843.9231768,11,0,-5,-46,23,3,6,2
1583443843.937467,-7,-26,-65,102,-47,-30,-24,-30
1583443843.937467,-28,67,50,104,40,6,0,-2
1583443843.9413314,18,-24,-24,-104,-31,0,5,1
1583443843.9413314,2,-5,-15,-124,9,-10,-2,-5
1583443843.9522247,-15,-38,15,33,-14,15,2,-1
1583443843.9522247,5,-11,-20,-80,32,-2,3,9
1583443843.9598477,7,-7,44,122,-35,-6,-3,3
1583443843.9598477,-3,-8,-28,-10,3,-10,-4,-7
1583443843.975085,3,2,20,12,5,4,1,-2
1583443843.975085,7,-8,-8,-38,43,-2,-4,1
1583443843.98334,5,13,26,25,-39,3,-3,1
1583443843.98334,4,2,-51,-5,13,-16,-5,-6
1583443843.9975693,-18,13,-43,-128,-7,10,1,-3
1583443843.9975693,14,-14,-15,-46,-12,-1,3,1
1583443844.0019698,-10,31,29,-80,-21,-9,-7,-10
1583443844.0019698,-45,7,-45,20,-16,-27,-11,13
1583443844.0115023,-22,-13,-25,-81,3,8,7,-21
1583443844.0115023,13,54,43,90,-23,3,-2,-14
1583443844.0190287,-11,36,14,3,30,10,15,80
1583443844.0190287,0,-8,-41,-18,-26,1,-5,-10
1583443844.0340955,-5,-2,43,45,15,-7,-8,-15
1583443844.0340955,-12,-3,-32,64,-18,-26,-19,-21
1583443844.0428498,-16,-26,-29,27,38,10,3,-8
1583443844.0428498,15,-37,14,-128,-5,7,9,17
1583443844.056976,-21,27,29,-13,30,8,9,11
1583443844.056976,1,-12,-4,-28,0,11,5,1
1583443844.0606468,-5,-18,-51,-94,-35,-19,-12,-3
1583443844.0606468,4,13,46,124,9,10,3,0
1583443844.072022,8,26,-1,-23,4,1,2,-1
1583443844.072022,3,-11,28,0,36,21,6,13
1583443844.079724,5,17,22,-59,-41,-12,-3,11
1583443844.079724,8,-6,25,101,41,11,6,7
1583443844.094952,20,15,-26,-63,-2,19,19,9
1583443844.094952,13,15,67,127,26,4,0,8
1583443844.10385,-10,-3,-24,54,16,8,7,-10
1583443844.10385,3,-27,-27,-30,4,-3,2,42
1583443844.1171355,-26,-25,-30,127,-12,-22,-13,-27
1583443844.1171355,-36,-37,11,-127,-59,-10,2,68
1583443844.119805,9,1,-10,127,23,4,4,-11
1583443844.119805,12,71,52,-128,22,-1,-2,-3
1583443844.1311734,22,31,71,127,23,24,21,9
1583443844.1311734,-24,-33,-43,59,-72,-33,-19,-26
1583443844.1389873,1,41,106,127,15,30,8,9
1583443844.1389873,5,-25,-56,-100,-14,4,5,4
1583443844.1544194,6,-20,41,127,47,16,11,11
1583443844.1544194,-12,-50,-69,-110,7,-34,-23,-18
1583443844.1624413,-19,15,36,-35,45,9,-6,-9
1583443844.1624413,-27,-69,29,-40,22,0,4,-1
1583443844.1765425,10,-10,-2,-24,-4,4,1,2
1583443844.1765425,6,-6,-1,96,11,7,6,4
1583443844.1785915,6,-10,-21,13,-31,-4,-5,-1
1583443844.1785915,27,2,105,127,49,5,4,12
1583443844.190929,-47,-10,67,111,11,-4,-5,1
1583443844.190929,12,-25,-3,-128,9,16,16,23
1583443844.1984756,-6,-8,-21,-38,-64,-15,-9,-16
1583443844.1984756,3,-38,-1,24,-21,-8,-9,-5
1583443844.2134132,-25,-19,16,31,32,9,-6,-20
1583443844.2134132,11,8,20,-41,25,4,3,8
1583443844.2216146,3,1,-10,-26,-10,-6,-3,-7
1583443844.2216146,21,38,30,127,-27,-2,5,14
1583443844.2358336,-10,6,37,127,71,14,9,5
1583443844.2358336,7,12,13,38,-31,-9,-5,0
1583443844.2441251,3,-4,28,25,4,8,3,9
1583443844.2441251,-14,-4,0,-9,-8,-13,-7,-4
1583443844.2508428,22,-3,14,49,39,6,4,3
1583443844.2508428,-8,17,-7,-106,-30,-2,-7,4
1583443844.2584445,-20,-9,-84,46,-10,-28,-29,-25
1583443844.2584445,-8,17,9,-9,-28,-3,-6,-16
1583443844.273397,5,1,-19,-33,4,4,1,-5
1583443844.273397,9,-5,-36,127,8,-1,2,13
1583443844.2816722,-33,-24,29,76,41,-1,-2,-1
1583443844.2816722,-4,-35,50,22,13,14,6,-7
1583443844.2958436,24,8,-14,-62,0,4,-6,-9
1583443844.2958436,7,27,86,127,44,10,10,3
1583443844.304151,-3,-5,-10,0,17,-2,-3,-10
1583443844.304151,6,-17,26,-128,-9,6,-2,-5
1583443844.31901,-19,-20,-54,-21,-34,-14,-14,-16
1583443844.31901,-12,33,-4,49,10,17,8,1
1583443844.3209343,16,-20,20,-63,-30,-10,-7,-8
1583443844.3209343,0,32,41,24,48,18,3,3
1583443844.3334315,-7,20,73,127,-9,-7,-5,-15
1583443844.3334315,-1,-16,-13,-128,-40,-4,-1,2
1583443844.34162,0,-10,-19,17,-3,0,2,-5
1583443844.34162,-4,-41,-5,-9,-5,1,3,1
1583443844.3558755,10,-14,15,-32,-10,1,1,-9
1583443844.3558755,-1,10,-26,-111,12,4,-1,-2
1583443844.3641,32,13,12,-64,28,17,9,-20
1583443844.3641,6,-12,-17,-28,-7,-9,1,21
1583443844.3790379,11,6,-5,-13,-29,1,5,12
1583443844.3790379,0,-8,-6,127,53,1,-6,-8
1583443844.3810034,-20,29,8,9,-22,-2,-5,-15
1583443844.3810034,-8,15,33,-10,-21,1,4,-5
1583443844.3933072,-20,1,-17,121,-5,1,-12,-16
1583443844.3933072,-4,-18,-36,-51,15,8,6,-11
1583443844.4016135,5,-2,-1,-21,21,-2,2,3
1583443844.4016135,5,-3,14,-26,-9,0,5,11
1583443844.4158466,-9,16,57,-95,-44,-26,-21,-21
1583443844.4158466,1,11,27,-4,-19,-8,-3,-4
1583443844.4241185,15,-3,-7,-126,26,20,12,5
1583443844.4241185,-8,18,15,127,-12,7,2,-1
1583443844.4389684,-6,5,-1,36,-2,-4,-6,-11
1583443844.4389684,-3,5,15,-10,-1,-2,-5,3
1583443844.4409893,7,-6,-12,54,28,8,5,10
1583443844.4409893,0,-63,11,37,18,4,-1,2
1583443844.4532971,1,-5,-40,-47,-6,-8,-6,-8
1583443844.4532971,-9,-24,-64,4,-29,-24,-15,-13
1583443844.4616308,-9,1,-5,64,-12,-6,-5,-9
1583443844.4616308,0,36,-39,112,32,17,9,-4
1583443844.4758368,4,15,57,53,-1,6,11,28
1583443844.4758368,-8,-37,-69,-128,-4,-19,-8,-19
1583443844.484079,-8,94,-13,-9,-4,0,-2,-5
1583443844.484079,-11,-91,-18,-128,-14,-10,-4,-4
1583443844.4990025,25,13,49,127,5,14,2,-5
1583443844.4990025,45,4,-11,-128,-1,13,22,71
1583443844.5010355,-13,12,14,53,19,8,7,-2
1583443844.5010355,4,-8,-13,-27,21,2,-1,2
1583443844.513379,7,9,-1,-55,-33,-1,-3,-23
1583443844.513379,-31,-42,27,94,39,25,18,28
1583443844.521649,4,55,9,11,-9,0,0,-8
1583443844.521649,8,-13,11,-17,48,8,10,17
1583443844.535814,-7,-1,25,32,-19,-9,-13,-13
1583443844.535814,15,9,-6,-16,6,-3,3,-4
1583443844.5441148,12,-6,-38,-116,-23,4,3,10
1583443844.5441148,3,-9,-3,104,31,2,1,-3
1583443844.55932,-1,0,-16,-18,-2,2,3,-1
1583443844.55932,5,11,-5,5,31,-7,-5,-2
1583443844.562331,13,2,27,127,21,13,5,4
1583443844.562331,6,13,17,-4,-8,2,4,-9
1583443844.5741785,-3,1,-85,-52,15,-12,0,11
1583443844.5741785,1,-31,-15,47,-40,-9,-9,-16
1583443844.5828452,-2,-26,5,16,-1,4,10,62
1583443844.5828452,-1,17,4,-66,3,-4,1,-7
1583443844.5973067,11,14,32,31,22,8,4,-3
1583443844.5973067,-22,-34,-80,-103,1,0,3,-10
1583443844.6056538,-7,89,3,20,10,2,-4,-7
1583443844.6056538,3,-8,-19,-128,-23,-12,-8,-3
1583443844.6199443,-5,4,3,84,-2,-4,-10,-15
1583443844.6199443,3,-2,-4,58,19,-4,2,-1
1583443844.6242864,4,-2,4,-17,-18,-5,1,12
1583443844.6242864,1,3,-1,-11,2,4,3,7
1583443844.63435,1,3,-6,-15,-6,-3,-4,-7
1583443844.63435,5,-3,3,5,22,-1,2,9
1583443844.6425047,-3,1,-2,21,-46,-3,-2,-4
1583443844.6425047,2,2,-3,-29,-6,-4,1,-1
1583443844.6568923,2,-4,0,8,-1,-3,0,-2
1583443844.6568923,-4,-4,3,13,16,3,-3,-6
1583443844.6652474,2,-5,0,6,11,1,-2,-11
1583443844.6652474,-4,0,-3,-26,-23,-5,-4,0
1583443844.6803644,1,2,0,9,2,-3,-3,-3
1583443844.6803644,-7,-3,8,-5,-5,-3,1,-4
1583443844.6848357,-1,4,1,-4,2,1,0,1
1583443844.6848357,0,-1,-5,-10,-12,-2,-2,-1
1583443844.6945357,-4,0,-6,-6,-2,-4,-4,-2
1583443844.6945357,-1,-1,4,1,1,3,0,1
1583443844.7026927,3,2,4,16,0,3,0,5
1583443844.7026927,0,-2,-5,-18,-2,3,-1,-1
1583443844.7172673,1,-2,0,9,2,0,-2,-1
1583443844.7172673,1,2,4,8,1,7,2,1
1583443844.725546,3,-3,-3,0,2,-6,-2,-5
1583443844.725546,-3,-1,2,-10,-5,3,-1,-2
1583443844.739868,1,3,-3,2,6,1,0,2
1583443844.739868,-1,-3,1,3,2,-6,-7,-5
1583443844.7441351,4,-3,0,1,1,6,5,-3
1583443844.7441351,1,-1,-4,-5,-5,15,2,3
1583443844.7543216,-3,-1,-1,-4,-7,-5,-6,-6
1583443844.7543216,3,0,3,3,-9,-16,-10,4
1583443844.7630653,6,-3,4,11,9,87,51,18
1583443844.7630653,-3,1,0,3,-2,-24,-16,-10
1583443844.777436,-4,0,-2,-11,-8,-9,-5,-4
1583443844.777436,1,-1,1,4,-1,-12,-10,-5
1583443844.7849576,2,-3,3,-19,-1,-2,-5,10
1583443844.7849576,-6,0,-3,39,-15,-13,-7,-3
1583443844.7996507,2,1,-6,-11,4,-7,-6,-2
1583443844.7996507,-1,0,-1,-6,-24,0,6,11
1583443844.8027675,1,-2,-3,8,17,15,4,3
1583443844.8027675,2,3,-4,-2,-6,6,5,-2
1583443844.8143842,-12,2,0,-1,-3,-7,-3,1
1583443844.8143842,2,-3,-3,7,0,-2,-1,-1
1583443844.8221655,2,-1,7,7,-1,0,3,3
1583443844.8221655,-16,0,1,-5,-1,1,-3,-1
1583443844.837387,-3,3,-5,-6,-5,-24,-16,-10
1583443844.837387,3,-1,-2,-6,10,-21,-6,-3
1583443844.845488,2,0,-3,-19,-25,18,17,8
1583443844.845488,1,1,2,-5,-4,31,2,-4
1583443844.8601832,1,2,-2,1,-2,-38,-8,-9
1583443844.8601832,1,-3,-3,-23,-9,0,-7,1
1583443844.8678753,6,0,1,-3,-1,30,19,3
1583443844.8678753,-23,-7,-5,-3,14,-6,2,-25
1583443844.8740807,13,1,6,11,-38,5,17,103
1583443844.8740807,-4,-3,2,28,38,-8,-8,-11
1583443844.8822806,6,-4,-1,-4,3,-7,-4,16
1583443844.8822806,12,3,9,0,-1,2,2,-4
1583443844.8970294,1,-6,-5,-12,-4,23,2,-9
1583443844.8970294,-28,-4,-7,-21,-3,1,-15,-63
1583443844.9055698,68,1,-8,30,7,-24,15,127
1583443844.9055698,1,0,0,-30,-11,-3,-1,19
1583443844.9204922,-6,2,9,-16,-1,4,0,-10
1583443844.9204922,-21,-2,-6,25,-28,-18,-9,-58
1583443844.9249797,-8,-4,-1,2,35,-4,-12,-30
1583443844.9249797,26,3,6,44,-5,4,15,3
1583443844.9347386,-44,-9,-22,-74,0,2,-6,-5
1583443844.9347386,-19,1,-3,-15,-28,-8,-20,-90
1583443844.9424424,27,0,8,37,54,15,12,26
1583443844.9424424,44,4,2,33,-3,-19,-7,-15
1583443844.9574025,-78,10,1,1,-23,-20,-10,-76
1583443844.9574025,25,-16,-27,-64,17,-3,-8,-13
1583443844.965243,-8,11,10,20,20,-30,-11,-29
1583443844.965243,44,-14,-9,-16,24,20,14,125
1583443844.9806287,3,7,8,2,-6,-28,0,25
1583443844.9806287,-18,-15,-9,27,-6,1,3,-16
1583443844.985773,-6,1,-9,-22,-24,-24,-19,-46
1583443844.985773,-3,3,-3,-21,21,46,17,-17
1583443844.9949582,-6,-2,3,11,-18,21,1,-9
1583443844.9949582,4,-4,3,44,-7,12,1,-11
1583443845.0013347,3,-2,2,-15,-57,-52,-14,4
1583443845.0013347,6,5,-7,11,-17,21,18,10
1583443845.0169828,12,6,-7,-18,1,-18,-18,-92
1583443845.0169828,60,-5,-4,-7,-9,13,17,78
1583443845.0251813,18,4,11,31,11,-22,-3,-1
1583443845.0251813,-13,-6,1,-21,-29,9,-7,-7
1583443845.0400622,-33,3,-1,8,6,5,5,-58
1583443845.0400622,7,0,4,-10,14,-7,9,53
1583443845.0439537,-41,-7,-8,11,-67,-8,-31,-68
1583443845.0439537,10,-3,-2,13,20,0,13,53
1583443845.0546677,33,12,15,-9,-13,2,17,1
1583443845.0546677,20,18,20,19,0,9,29,42
1583443845.0617747,-19,3,10,27,-15,-6,-6,-7
1583443845.0617747,-1,0,0,-36,-8,-5,-6,-14
1583443845.077145,-3,-4,-2,-2,22,11,5,-8
1583443845.077145,3,11,9,19,-7,-41,-13,-27
1583443845.0853827,23,-5,-5,-2,15,17,8,52
1583443845.0853827,-2,0,10,-12,-4,23,2,4
1583443845.1005929,16,5,1,38,22,-11,12,88
1583443845.1005929,-6,-1,6,-3,40,6,-1,-10
1583443845.105026,10,-1,4,14,-58,1,7,16
1583443845.105026,-7,-8,-7,7,39,22,-1,-10
1583443845.11426,-39,-2,-9,-19,-21,-16,-5,-22
1583443845.11426,5,0,0,14,2,-7,5,4
1583443845.1218987,11,7,6,-7,-11,-8,3,32
1583443845.1218987,-3,1,4,-10,-23,0,-8,-4
1583443845.1371832,1,5,8,31,9,-14,6,-3
1583443845.1371832,-15,-5,-4,11,21,-3,-5,-38
1583443845.1453884,2,-3,-8,-40,-27,22,1,-30
1583443845.1453884,10,3,9,49,40,-3,12,19
1583443845.1594067,-13,-5,-6,-10,-23,3,-12,-51
1583443845.1594067,-11,3,7,-13,10,-19,-6,5
1583443845.1680796,1,0,-5,-5,-26,-1,-1,-25
1583443845.1680796,-12,0,-4,-2,10,12,7,35
1583443845.173544,40,6,2,16,-3,8,10,8
1583443845.173544,-7,0,11,-13,-15,-12,-2,-17
1583443845.1817443,14,4,7,9,-25,7,4,17
1583443845.1817443,-19,2,2,-7,7,-24,-18,-10
1583443845.1970553,13,0,3,3,15,23,11,106
1583443845.1970553,23,3,6,6,9,-9,11,36
1583443845.205365,-10,-5,-2,10,-7,-16,-10,-15
1583443845.205365,-2,1,2,-7,14,-7,-10,-1
1583443845.2193208,-16,-3,3,7,-21,12,10,-1
1583443845.2193208,-9,-5,-5,3,-12,15,8,-41
1583443845.227849,1,2,-8,-1,30,19,-13,-10
1583443845.227849,3,0,-5,-6,11,-17,-7,-2
1583443845.2342472,-1,4,3,-4,26,5,1,-3
1583443845.2342472,-37,-5,-2,6,-13,12,2,-70
1583443845.2419775,25,3,5,11,-22,8,5,49
1583443845.2419775,-24,-8,-8,-45,29,7,-5,-32
1583443845.2566986,20,7,4,13,-47,1,3,19
1583443845.2566986,54,5,15,21,1,8,20,127
1583443845.2652717,-19,-1,1,2,-14,33,5,-14
1583443845.2652717,-10,9,9,7,1,-29,-9,2
1583443845.2798405,-1,-1,3,0,28,9,7,-12
1583443845.2798405,1,-4,1,1,-4,-6,1,-31
1583443845.2879682,-7,-1,1,1,-8,4,-4,-19
1583443845.2879682,-7,1,4,11,9,2,13,65
1583443845.3028455,46,4,4,-23,-13,-2,0,31
1583443845.3028455,-7,0,-4,22,35,-17,-9,-45
1583443845.308049,-23,-1,0,-31,-11,-12,1,16
1583443845.308049,-9,-2,-4,36,17,15,1,-23
1583443845.3159845,-5,-1,-5,-14,-1,19,-4,-12
1583443845.3159845,-34,-13,-11,1,25,-17,6,-17
1583443845.32438,6,5,3,-23,-15,-11,-9,-13
1583443845.32438,3,0,-11,11,-84,21,12,6
1583443845.3390856,-5,-1,-19,-14,58,4,-16,-18
1583443845.3390856,5,5,4,-4,-4,-13,-5,11
1583443845.3475342,-19,-3,7,-10,-35,-1,-13,-7
1583443845.3475342,-14,-2,1,7,-14,-11,-1,-19
1583443845.3624437,-11,0,-10,-27,10,12,3,-10
1583443845.3624437,-24,6,5,9,-10,-12,-14,-59
1583443845.367644,22,-5,10,42,15,4,23,100
1583443845.367644,40,-4,-7,-28,-6,20,9,127
1583443845.376112,-6,1,0,15,32,-9,-1,3
1583443845.376112,-5,-6,-1,-22,-1,26,4,-15
1583443845.384455,-4,-6,-5,34,7,8,-6,-13
1583443845.384455,-1,-4,-5,-1,-4,17,3,36
1583443845.3991683,8,3,-6,-13,33,13,-2,-3
1583443845.3991683,-11,-1,-3,1,-30,-2,-2,-8
1583443845.4074128,6,-4,1,-18,-4,3,3,-33
1583443845.4074128,-13,3,9,16,9,12,-6,0
1583443845.422474,22,12,7,10,5,-15,20,37
1583443845.422474,-7,-1,5,-13,-9,6,1,-11
1583443845.426919,-4,-6,-6,21,31,-5,-11,22
1583443845.426919,15,-2,-5,-22,-23,-3,-11,-68
1583443845.4372897,-4,5,9,-5,6,10,21,119
1583443845.4372897,-1,-4,-2,20,17,15,6,-7
1583443845.4454293,-10,2,-3,-11,0,-11,-10,-33
1583443845.4454293,2,1,5,4,4,14,1,6
1583443845.4596193,-16,-5,-21,-19,-9,-21,-19,-33
1583443845.4596193,12,-1,9,6,-8,0,-9,-11
1583443845.467824,18,-1,10,5,-3,12,18,21
1583443845.467824,4,8,-5,2,-7,9,10,-36
1583443845.482761,14,-1,3,-2,-17,8,4,5
1583443845.482761,-1,4,3,1,-1,-14,-7,-2
1583443845.4867115,-18,-8,-5,4,-3,5,-4,-21
1583443845.4867115,-2,0,-8,-13,-12,-12,-6,0
1583443845.4964764,0,0,-5,-11,-4,3,-4,0
1583443845.4964764,1,0,9,-4,-15,5,-2,-27
1583443845.5043306,19,0,-2,21,5,28,25,104
1583443845.5043306,-12,-7,-8,12,8,4,1,-40
1583443845.5196922,13,3,-1,36,48,-10,-8,-42
1583443845.5196922,-3,2,-2,-33,-33,-6,6,1
1583443845.527767,13,-5,-4,-28,-17,3,-4,-1
1583443845.527767,-6,-3,-8,59,23,5,-4,-3
1583443845.5426884,-19,4,13,-11,-10,1,6,-26
1583443845.5426884,13,2,-4,0,35,6,10,50
1583443845.5465496,-7,9,1,6,-3,-33,1,2
1583443845.5465496,-31,-10,-6,-17,2,16,-10,-46
1583443845.5565305,-20,0,-3,-8,-2,-6,-15,-34
1583443845.5565305,9,-3,5,-13,-15,10,5,24
1583443845.564753,-1,-3,2,34,17,-16,-3,-5
1583443845.564753,-35,-3,-3,-18,-3,12,-2,11
1583443845.5794241,25,-11,-19,-2,9,20,-4,13
1583443845.5794241,-3,4,0,-15,-30,-9,-5,0
1583443845.5878165,-3,-4,1,1,6,5,3,-5
1583443845.5878165,-5,-9,-17,16,27,16,-11,-19
1583443845.6029074,13,2,7,-17,-11,-1,4,20
1583443845.6029074,3,2,3,18,-17,8,6,30
1583443845.607193,-20,-6,-7,-27,5,-22,-11,3
1583443845.607193,2,0,3,4,-5,8,9,-10
1583443845.6163783,4,0,-2,-16,9,9,10,13
1583443845.6163783,10,1,0,12,-62,-22,-14,20
1583443845.624647,6,4,5,27,43,1,21,5
1583443845.624647,-9,-1,-8,-27,2,-7,7,15
1583443845.6403751,-14,5,3,5,5,-6,-5,-27
1583443845.6403751,-10,-1,-3,-24,1,0,-6,-14
1583443845.6465294,16,-9,-4,10,-2,-2,-8,12
1583443845.6465294,-23,7,6,10,2,-3,4,24
1583443845.662159,-9,-6,0,-2,6,0,-9,-7
1583443845.662159,4,-3,8,7,17,-11,1,34
1583443845.6657636,-1,-1,-3,7,12,12,10,30
1583443845.6657636,2,3,-6,-14,-3,-8,-5,-11
1583443845.6768212,0,3,3,7,-7,5,3,-8
1583443845.6768212,-15,-4,1,4,6,26,7,-16
1583443845.684779,-8,-3,1,0,-2,2,4,9
1583443845.684779,10,-1,-3,1,14,7,3,-2
1583443845.6988358,-1,-2,-4,22,-2,-5,-14,-7
1583443845.6988358,2,-1,6,9,11,1,6,21
1583443845.7074583,-1,1,-2,3,13,-6,-2,1
1583443845.7074583,-1,3,-3,-2,5,-6,-3,1
1583443845.7227259,-6,-3,1,1,8,-3,-4,9
1583443845.7227259,7,-1,9,-2,14,10,11,8
1583443845.7282553,-47,-3,16,61,38,75,30,-104
1583443845.7282553,1,0,-16,-22,-13,-7,-2,5
1583443845.7361217,14,6,4,-1,-2,-3,-1,20
1583443845.7361217,17,-2,11,0,-20,-7,0,23
1583443845.745132,-14,-6,-1,-32,14,-17,-11,-40
1583443845.745132,-13,10,4,57,-92,-10,-12,-41
1583443845.7592115,-32,7,-6,32,49,-14,-18,-128
1583443845.7592115,37,-15,-8,-24,4,16,12,40
1583443845.767953,12,5,4,-19,1,8,0,-44
1583443845.767953,-29,2,-2,2,-5,10,-13,-7
1583443845.7828963,-3,-3,-1,-53,-18,-1,-7,9
1583443845.7828963,-11,0,1,80,36,-5,3,-65
1583443845.7873275,32,-5,-11,-41,-5,-11,9,97
1583443845.7873275,-7,3,3,-17,-5,1,-4,-2
1583443845.796409,-6,1,-3,-6,0,-14,-2,-5
1583443845.796409,-1,2,-8,12,12,-13,-18,-7
1583443845.8054345,2,-1,4,-2,-10,-5,2,1
1583443845.8054345,18,7,5,-20,-36,-8,0,-19
1583443845.8199055,-8,-6,-13,12,21,-12,-6,-4
1583443845.8199055,10,2,8,14,20,37,25,-9
1583443845.8291497,12,5,4,7,-1,-4,-2,-14
1583443845.8291497,4,6,-6,-13,-13,-29,-12,-17
1583443845.841943,1,-1,-8,-23,-37,24,3,-5
1583443845.841943,-14,-3,5,32,35,8,8,0
1583443845.85127,38,11,12,27,2,0,12,71
1583443845.85127,-34,1,1,-2,-8,0,-10,-56
1583443845.8563352,15,-2,-15,-10,22,-2,1,79
1583443845.8563352,1,-4,-11,-15,-16,11,-6,-13
1583443845.866049,1,-1,0,-1,-2,8,-5,-21
1583443845.866049,-7,-3,0,21,34,3,0,-23
1583443845.8794887,2,2,-2,-13,-9,7,0,-16
1583443845.8794887,-10,4,2,3,-2,5,17,30
1583443845.889429,5,-1,-6,2,-2,-5,-6,20
1583443845.889429,-24,-4,-6,-22,-3,-15,-2,-52
1583443845.9013836,-4,-6,-4,-15,5,31,9,15
1583443845.9013836,-4,0,5,32,19,-10,-16,-21
1583443845.9112887,-6,-5,-6,-5,-30,-1,9,-17
1583443845.9112887,7,5,11,4,3,6,9,32
1583443845.916408,16,-5,-8,13,29,24,12,43
1583443845.916408,18,-1,-6,-15,13,27,17,-24
1583443845.926526,16,6,16,12,-20,5,3,-25
1583443845.926526,-2,-1,2,44,24,-4,-7,-10
1583443845.9396029,-28,-1,-5,-13,23,-5,-15,-56
1583443845.9396029,45,7,15,-40,-28,14,32,127
1583443845.9493973,-1,-2,5,43,5,-8,-1,-11
1583443845.9493973,-52,-2,-14,-10,10,7,-6,-59
1583443845.9613202,16,3,12,-11,-2,1,10,69
1583443845.9613202,-4,2,8,-1,9,-3,-2,-6
1583443845.971101,-42,-11,-11,-23,4,43,0,-14
1583443845.971101,15,7,5,13,-10,-13,3,44
1583443845.9769638,2,4,4,-8,3,0,-1,-6
1583443845.9769638,3,-1,1,20,7,1,3,8
1583443845.987228,-6,-1,-7,1,5,5,-1,-13
1583443845.987228,-6,-7,-30,-18,20,-16,-23,-6
1583443846.0001178,37,7,15,6,-11,4,11,71
1583443846.0001178,-8,1,10,21,37,2,4,-2
1583443846.009502,9,5,8,8,-3,-1,7,50
1583443846.009502,-26,6,6,-15,-24,1,-3,-20
1583443846.021359,-8,-1,-10,-22,-8,3,-4,-31
1583443846.021359,-5,-1,2,9,20,-5,-10,-26
1583443846.0318565,-14,0,2,-22,-37,-20,-8,-31
1583443846.0318565,-10,-3,4,49,-1,16,8,19
1583443846.0371246,-24,-2,0,-14,20,-6,-2,0
1583443846.0371246,0,-5,-4,9,53,1,6,16
1583443846.0455449,-7,1,12,-13,-70,-1,-19,-36
1583443846.0455449,17,3,-4,5,-3,-24,7,43
1583443846.059496,5,-1,-14,-32,-5,-6,-3,19
1583443846.059496,-1,-1,3,24,15,15,8,4
1583443846.0692253,-25,-14,-11,15,12,36,2,-26
1583443846.0692253,9,1,-6,-21,0,-7,-2,19
1583443846.0821986,-14,-3,3,2,10,11,7,-2
1583443846.0821986,-7,-6,0,11,-6,1,-2,-10
1583443846.092361,-4,-4,3,3,4,3,0,-18
1583443846.092361,8,-1,-2,-16,3,-11,4,50
1583443846.0973113,1,2,-1,-10,-14,-12,-6,2
1583443846.0973113,-3,0,-2,3,22,7,-6,-15
1583443846.106832,-6,-5,-17,5,-9,18,13,1
1583443846.106832,4,2,2,-3,-24,-15,-4,36
1583443846.1198168,-2,-1,-2,5,6,1,4,8
1583443846.1198168,-20,-3,-5,3,6,17,7,-19
1583443846.1294785,-2,4,2,8,1,-18,-12,-8
1583443846.1294785,22,8,3,-2,-18,-8,9,-10
1583443846.142024,5,6,-1,-5,24,5,9,2
1583443846.142024,5,-3,2,2,20,7,-7,-68
1583443846.1517313,4,0,3,-12,6,0,9,40
1583443846.1517313,-5,-2,-8,0,-29,-13,3,15
1583443846.1567092,-5,-2,-7,-25,3,-11,-12,-12
1583443846.1567092,8,-2,7,20,-3,-7,-4,-20
1583443846.1672926,33,8,6,3,-11,-17,14,51
1583443846.1672926,-17,2,-2,-21,-22,-7,-10,-31
1583443846.1787205,-16,-2,5,0,7,-4,2,54
1583443846.1787205,12,-1,-1,56,6,-12,-7,-26
1583443846.1881554,-8,-1,-2,-16,-14,1,-1,-23
1583443846.1881554,-9,3,4,25,5,-4,-8,-36
1583443846.2012074,5,1,-5,-17,-13,1,-1,-29
1583443846.2012074,4,2,6,-8,-6,1,3,-3
1583443846.2108984,-8,-1,-10,-10,2,5,-4,-9
1583443846.2108984,-8,-3,-8,5,-4,-3,-2,3
1583443846.225753,9,7,10,10,7,5,21,45
1583443846.225753,-1,-3,-8,-7,-12,15,8,3
1583443846.2312,20,4,0,3,-14,-5,-2,-8
1583443846.2312,-5,7,12,14,19,2,6,3
1583443846.239728,-9,1,8,9,15,-1,-8,-41
1583443846.239728,-6,2,0,20,-15,4,0,-10
1583443846.249308,-2,-4,1,8,17,-8,-18,-48
1583443846.249308,-19,0,-6,-5,-11,12,3,-10
1583443846.2619696,13,9,9,-13,-3,8,8,-15
1583443846.2619696,5,6,10,3,4,-3,3,5
1583443846.272067,12,0,3,34,1,3,2,1
1583443846.272067,10,-2,-1,-21,-7,2,-2,-9
1583443846.2861233,9,2,-4,18,3,-2,14,5
1583443846.2861233,13,0,4,0,8,9,4,48
1583443846.2943554,-2,1,9,-2,-5,2,-7,-7
1583443846.2943554,7,2,-1,-17,-3,-10,-8,-32
1583443846.298989,-4,-2,-3,23,5,14,10,-22
1583443846.298989,-9,-3,-2,22,8,10,2,-9
1583443846.3072653,8,-4,-4,-13,-6,-1,-9,11
1583443846.3072653,-2,2,-5,4,-4,7,1,-16
1583443846.3208642,-4,6,3,2,20,-2,-1,-13
1583443846.3208642,5,-2,6,0,8,-3,-5,-6
1583443846.3297324,4,-4,0,-2,-27,12,1,18
1583443846.3297324,-11,2,-3,41,37,1,10,32
1583443846.3455002,-3,-1,3,-18,-5,-6,-7,-5
1583443846.3455002,14,-2,4,-3,-9,-1,1,22
1583443846.3495502,25,0,3,7,23,5,4,58
1583443846.3495502,-4,5,1,11,0,2,5,-13
1583443846.3592985,24,-3,2,16,10,9,9,35
1583443846.3592985,-5,1,2,-10,-5,14,9,15
1583443846.3686266,19,0,-4,-1,-1,5,-9,-45
1583443846.3686266,36,5,-1,13,9,7,11,20
1583443846.3812804,2,5,1,-12,-18,-8,-4,-19
1583443846.3812804,-43,-3,7,-1,11,1,-4,16
1583443846.3911505,3,2,0,9,-3,6,-1,0
1583443846.3911505,-7,2,-4,-3,-1,0,-8,-23
1583443846.4057584,4,-5,-10,-9,-1,-7,0,-4
1583443846.4057584,41,2,1,1,6,-12,5,40
1583443846.4117522,-2,1,4,1,-10,1,2,5
1583443846.4117522,0,1,-1,-12,-10,5,-3,-11
1583443846.4189503,12,0,2,6,2,4,-7,-16
1583443846.4189503,3,-5,5,5,-4,-10,1,3
1583443846.428464,4,1,1,-4,4,6,-8,-21
1583443846.428464,24,4,-15,-15,-7,-8,1,19
1583443846.4416392,-30,1,0,8,17,5,-2,-19
1583443846.4416392,-11,2,4,-4,-22,1,-2,-22
1583443846.4514852,11,1,1,18,25,5,-6,-5
1583443846.4514852,0,-2,-6,-16,-10,-3,2,-10
1583443846.4657533,7,2,0,3,3,2,6,-5
1583443846.4657533,-3,-5,-3,1,-3,5,-2,-16
1583443846.4717925,6,1,3,10,4,-12,-5,-7
1583443846.4717925,-1,-4,-2,2,-4,4,6,40
1583443846.4788191,2,-3,-2,-2,5,3,2,4
1583443846.4788191,12,-1,5,7,11,-2,13,55
1583443846.4881244,1,2,5,1,-8,7,1,-2
1583443846.4881244,-1,5,5,8,0,-5,4,2
1583443846.5019224,3,1,5,2,3,0,6,26
1583443846.5019224,9,-6,-2,0,-3,2,3,28
1583443846.5117054,5,2,2,4,12,1,-8,14
1583443846.5117054,10,2,6,-2,-22,-9,7,0
1583443846.5253654,16,-3,-4,16,35,9,-3,-29
1583443846.5253654,-3,-2,2,-6,-5,-5,-6,-7
1583443846.5310485,0,-3,1,4,-5,-5,5,-13
1583443846.5310485,8,1,-1,-5,-8,13,7,14
1583443846.5390284,14,4,2,6,6,-11,-3,0
1583443846.5390284,-23,-5,3,1,-2,-1,2,15
1583443846.548732,8,0,-3,-7,-9,-1,-2,-6
1583443846.548732,17,3,-5,-10,-5,-7,-4,-2
1583443846.561767,11,0,-3,-13,-2,-6,-6,-5
1583443846.561767,6,-8,4,9,-7,-1,3,9
1583443846.5717583,-5,0,-1,-5,2,2,-3,-3
1583443846.5717583,2,2,2,-5,1,-3,3,2
1583443846.585406,0,3,5,-6,-3,-3,0,-4
1583443846.585406,-6,1,1,5,3,4,-9,-6
1583443846.5913982,-22,4,6,5,9,2,13,6
1583443846.5913982,3,5,3,10,-6,2,2,12
1583443846.5989165,-16,2,5,1,-3,2,-2,6
1583443846.5989165,0,-2,1,-2,2,1,3,1
1583443846.6084578,-1,-1,-3,-4,-4,6,-12,-9
1583443846.6084578,0,3,0,-20,-14,-10,-4,-5
1583443846.6217122,3,-1,1,19,7,13,5,3
1583443846.6217122,1,0,2,-5,3,2,1,-14
1583443846.631404,-1,0,-3,-9,-6,2,-1,-11
1583443846.631404,-1,-1,-3,-8,-12,-1,-2,-5
1583443846.6457317,6,1,-4,-3,0,-3,0,-13
1583443846.6457317,-1,-4,3,7,7,-2,-5,4
1583443846.6519547,3,-1,0,6,-2,2,4,35
1583443846.6519547,7,1,-3,-7,-1,-1,2,-12
1583443846.659195,-8,1,-2,0,-3,0,-4,-17
1583443846.659195,-3,-3,1,2,7,5,5,22
1583443846.6692765,0,0,3,-1,-6,-3,-1,-9
1583443846.6692765,5,4,-3,2,-1,-4,-2,-12
1583443846.681583,11,0,-1,3,-1,-3,-2,-8
1583443846.681583,0,-5,1,5,0,3,2,-5
1583443846.6913826,1,2,-1,1,1,2,-1,5
1583443846.6913826,1,3,-4,-3,-3,-4,5,8
1583443846.7051876,-4,-2,-2,2,-1,-3,-1,-11
1583443846.7051876,-2,-3,-2,-1,1,1,-7,-4
1583443846.710537,6,1,0,-4,-8,-4,-1,0
1583443846.710537,-1,0,0,-2,-3,5,4,5
1583443846.7193456,-4,0,-7,-8,-4,-3,-8,-6
1583443846.7193456,6,-2,-1,5,6,-2,5,18
1583443846.7295365,1,2,3,-2,-11,-3,-5,-1
1583443846.7295365,2,1,2,-2,3,-5,1,1
1583443846.742218,-3,-2,-1,0,-3,-4,0,-1
1583443846.742218,-6,-6,-2,-4,-4,-8,-6,-11
1583443846.752233,2,0,-2,-1,-3,2,2,-1
1583443846.752233,0,3,0,-1,-4,-5,-7,-7
1583443846.7660701,-1,-2,-3,2,-2,1,0,-2
1583443846.7660701,-2,-1,2,2,4,-2,0,-1
1583443846.772258,-2,0,-3,-4,-8,-2,-4,1
1583443846.772258,10,-1,0,-3,-6,-2,2,0
1583443846.7797892,2,-2,1,-1,1,-1,-1,2
1583443846.7797892,-6,-4,4,3,0,-5,1,4
1583443846.7884784,0,0,-5,-4,-3,-1,1,2
1583443846.7884784,-1,1,-3,-6,-7,-2,-3,-3
1583443846.8022041,-2,-2,-1,-2,-2,0,-4,1
1583443846.8022041,0,-3,2,1,1,2,-4,-1
1583443846.8120267,2,-2,3,-3,-4,-5,-5,1
1583443846.8120267,0,0,0,1,-8,0,-1,-1
1583443846.826234,-2,3,0,-1,-2,3,-4,-6
1583443846.826234,0,-4,-2,-1,0,0,0,0
1583443846.8327098,0,1,5,5,-5,-6,-1,0
1583443846.8327098,-3,-2,-3,-4,-3,-2,-7,-6
1583443846.8393314,1,1,2,-5,-5,0,3,1
1583443846.8393314,0,-1,5,10,-1,-3,-3,1
1583443846.8486836,1,-2,-1,-7,-4,1,-8,-3
1583443846.8486836,0,-1,-3,-6,-6,3,2,-1
1583443846.8617773,-1,1,0,-2,1,0,0,-2
1583443846.8617773,1,-2,1,-5,-3,1,1,0
1583443846.8714733,1,1,1,-4,-2,-1,-1,-2
1583443846.8714733,3,6,4,1,-2,-1,-3,0
1583443846.8860967,0,0,-3,1,0,-5,0,-2
1583443846.8860967,4,-2,1,4,6,15,7,3
1583443846.8923056,-2,-1,2,-7,-3,0,-2,-2
1583443846.8923056,1,3,4,3,1,0,3,-4
1583443846.8993132,-4,-1,3,2,4,-2,-4,-1
1583443846.8993132,2,-3,1,-37,-5,-4,-3,4
1583443846.9086494,-3,0,-2,59,18,-11,-8,-11
1583443846.9086494,0,3,2,-14,-29,18,7,-1
1583443846.9221153,2,0,2,10,26,36,5,2
1583443846.9221153,0,-2,-4,-5,-5,-11,2,2
1583443846.9320505,0,3,-1,-5,-7,-16,-11,-7
1583443846.9320505,1,4,2,-9,0,18,14,2
1583443846.9459429,-3,-1,-2,1,-1,-10,-4,-3
1583443846.9459429,1,-4,-1,-5,2,0,0,-2
1583443846.95166,-1,-2,1,2,-10,-10,-7,-3
1583443846.95166,-2,1,-5,1,-4,-6,-5,-5
1583443846.9591668,0,0,1,16,0,-6,-4,-1
1583443846.9591668,2,-2,3,-2,-2,-2,-5,-1
1583443846.9685798,-3,-2,-12,-29,-11,-1,-1,-2
1583443846.9685798,-1,7,8,6,3,3,-1,-4
1583443846.981975,-4,-3,-9,-7,-6,5,0,-4
1583443846.981975,-2,-1,2,18,6,3,2,0
1583443846.9918842,2,1,-5,-4,-3,-3,-2,-2
1583443846.9918842,-1,1,0,-2,-5,-5,-2,-3
1583443847.0055773,0,-1,-1,-1,1,1,1,-3
1583443847.0055773,-4,-1,-1,2,-2,5,-8,-6
1583443847.0112143,4,3,3,0,2,-6,6,4
1583443847.0112143,1,2,1,-9,-9,2,9,2
1583443847.0193677,-4,-3,0,4,1,-1,-5,-2
1583443847.0193677,-2,-2,-2,-8,-3,0,0,3
1583443847.0291326,-1,-1,-2,-5,-3,-7,-4,-5
1583443847.0291326,-3,5,-4,21,0,-4,-1,1
1583443847.0422015,2,3,7,-10,-9,-1,0,-2
1583443847.0422015,-1,-2,-1,6,15,5,-3,0
1583443847.0520663,-1,-1,0,-17,-22,-7,-9,-8
1583443847.0520663,3,4,0,17,12,-4,4,3
1583443847.0650399,1,3,5,-3,-2,24,6,3
1583443847.0650399,1,-4,-11,-1,-1,-9,-1,0
1583443847.0717142,-2,2,-2,3,-3,17,3,-3
1583443847.0717142,1,2,-1,-3,-6,-7,-6,-5
1583443847.079292,2,-4,5,3,15,-7,-4,1
1583443847.079292,1,-4,-3,-7,-10,0,3,1
1583443847.0885735,-4,0,2,8,7,0,-1,-2
1583443847.0885735,-4,2,-5,-3,-3,-5,-9,-8
1583443847.1020093,2,-3,-1,0,1,9,4,4
1583443847.1020093,1,-2,-1,2,0,-1,5,4
1583443847.1119235,1,4,4,-1,9,36,10,2
1583443847.1119235,-4,1,6,-6,-8,-2,-1,-6
1583443847.1252055,4,-1,0,-4,-1,-7,-2,4
1583443847.1252055,-4,-8,4,5,-5,-7,-2,-1
1583443847.1318123,-7,-8,-19,17,-15,-11,-8,-10
1583443847.1318123,-1,5,-2,3,2,-1,-6,-2
1583443847.1479206,-3,-4,-13,-17,-4,-2,1,-2
1583443847.1479206,0,-3,3,4,3,-2,2,-1
1583443847.1531422,-2,2,-5,23,-2,-5,-6,-4
1583443847.1531422,-1,2,-5,-23,-5,-9,-5,-5
1583443847.160847,0,-3,1,4,7,9,3,1
1583443847.160847,3,-1,3,-1,-8,3,-2,1
1583443847.169688,5,-1,1,12,1,-6,0,-1
1583443847.169688,-2,-2,-5,-5,-4,7,2,-5
1583443847.1840503,-1,-2,3,1,3,-8,-3,3
1583443847.1840503,3,-1,1,1,5,4,0,4
1583443847.1908047,0,0,-3,-6,-10,0,1,0
1583443847.1908047,0,1,0,4,-3,4,2,3
1583443847.2072864,-3,3,2,0,4,-2,0,-3
1583443847.2072864,-3,-1,0,-5,6,1,-3,0
1583443847.2106123,-3,4,5,19,5,-2,7,4
1583443847.2106123,2,1,-5,-3,4,1,2,0
1583443847.2208092,-1,0,5,9,-2,2,5,1
1583443847.2208092,-1,-2,-9,-4,8,-3,0,-2
1583443847.2357929,1,0,4,-4,-1,9,0,-3
1583443847.2357929,0,0,-21,8,-1,-11,-3,-3
1583443847.2440221,1,1,14,-5,8,7,7,1
1583443847.2440221,1,-2,-7,0,-2,-10,-5,3
1583443847.2507937,1,3,1,0,-8,-9,-8,-3
1583443847.2507937,1,2,7,-5,-6,-1,5,1
1583443847.2672014,0,-2,-3,7,-3,-11,-9,-5
1583443847.2672014,3,-5,-15,5,15,10,8,8
1583443847.2704084,6,9,0,3,5,26,9,5
1583443847.2704084,-3,3,10,-2,-4,-3,-7,-6
1583443847.280901,-1,-4,0,8,3,-3,-6,-3
1583443847.280901,-2,-5,0,-9,-3,-8,-1,1
1583443847.289736,0,3,-3,32,2,-3,-4,-2
1583443847.289736,0,4,16,-15,1,-4,0,0
1583443847.3040848,-3,-8,-17,4,-6,0,0,-2
1583443847.3040848,1,-4,-14,-46,-3,-1,-4,-3
1583443847.3107588,-2,-3,-2,13,0,-2,0,-4
1583443847.3107588,2,0,9,-3,1,2,-3,0
1583443847.3272374,-5,-1,2,0,-1,-3,2,1
1583443847.3272374,1,-3,-2,0,5,9,-1,1
1583443847.3304553,-2,-5,-12,0,-2,3,1,1
1583443847.3304553,0,3,-10,-2,-7,-17,-5,4
1583443847.3407931,5,7,6,3,7,13,11,-7
1583443847.3407931,-3,-1,15,-12,-4,5,-4,-5
1583443847.3497484,-5,-1,3,9,4,-12,-4,-10
1583443847.3497484,-2,-1,-6,-5,-11,-6,-7,-3
1583443847.3640044,-3,-7,6,8,10,-5,0,0
1583443847.3640044,2,-2,-15,3,-2,-7,1,3
1583443847.3708067,7,8,14,-3,6,-3,-5,-3
1583443847.3708067,3,-4,-5,-8,-13,15,0,-4
1583443847.3871846,-3,1,7,3,-6,0,3,1
1583443847.3871846,-4,1,-1,7,8,0,1,3
1583443847.3902552,-2,-3,-2,-4,0,-2,-4,-5
1583443847.3902552,-5,-1,1,-2,-3,-10,-4,-5
1583443847.40084,-1,-3,-3,6,13,16,1,3
1583443847.40084,-2,0,3,12,10,8,4,3
1583443847.4096985,-2,2,-1,-6,-7,-4,0,0
1583443847.4096985,-3,0,-2,-3,1,-5,-5,-4
1583443847.4239936,2,-2,3,-16,-1,3,4,5
1583443847.4239936,-6,-7,5,43,-4,-23,-5,-2
1583443847.4307804,-4,2,0,4,-7,2,-1,-4
1583443847.4307804,0,2,-2,2,4,21,14,2
1583443847.448027,-2,-4,-4,1,-1,-1,1,1
1583443847.448027,8,-2,5,-4,7,-8,-2,-3
1583443847.4524465,-8,2,-4,18,-10,-16,-9,-8
1583443847.4524465,3,-1,5,-25,16,-1,3,11
1583443847.4614446,2,-4,3,44,-13,12,6,2
1583443847.4614446,-2,-2,1,5,16,-11,-6,-1
1583443847.4791725,1,1,-2,-10,4,3,-1,1
1583443847.4791725,1,4,2,7,-8,-2,2,0
1583443847.4849997,-1,-4,-1,1,-11,2,2,0
1583443847.4849997,1,1,8,26,-8,4,1,4
1583443847.4920337,-1,3,-2,-29,23,-4,-7,-7
1583443847.4920337,-2,2,-2,17,-47,-1,0,-3
1583443847.5085285,-3,-6,-13,-48,-9,-2,3,1
1583443847.5085285,-4,-5,-4,1,16,-5,-1,-6
1583443847.514225,1,6,-5,4,-3,2,5,2
1583443847.514225,-4,0,4,-8,-2,-1,2,-2
1583443847.521865,-3,-7,-14,-23,7,0,-1,-2
1583443847.521865,0,1,10,40,-9,-3,4,6
1583443847.531976,-8,0,-8,-38,-23,-10,-13,-8
1583443847.531976,-3,5,12,48,-17,23,13,0
1583443847.5452657,1,0,-2,-30,29,-21,-11,-2
1583443847.5452657,0,-5,-9,-9,21,-6,-1,6
1583443847.5515747,-2,-1,4,-20,5,-14,-8,-4
1583443847.5515747,-4,-5,-5,54,-60,16,2,-8
1583443847.56814,-1,1,-3,-15,23,1,9,1
1583443847.56814,-1,-1,1,24,18,-15,-6,0
1583443847.574347,-2,2,-1,-32,-14,-3,-4,-3
1583443847.574347,5,0,0,-58,-26,0,5,10
1583443847.581312,2,-2,-2,117,53,5,3,2
1583443847.581312,-7,-3,6,50,-80,-13,-9,-7
1583443847.5967994,2,7,0,-1,11,-2,-3,-6
1583443847.5967994,1,-8,8,-42,-25,2,3,0
1583443847.6050622,-3,7,-3,-6,11,-3,0,-1
1583443847.6050622,1,-1,2,2,-28,-5,0,3
1583443847.61183,3,-1,-7,10,23,5,0,-1
1583443847.61183,-4,-1,-6,-3,-17,-12,-5,-7
1583443847.628564,0,-2,5,-2,12,31,8,6
1583443847.628564,-5,-3,-1,0,-14,-9,-6,-5
1583443847.6355898,3,2,-3,-9,-14,-9,-2,-1
1583443847.6355898,-2,-2,1,3,10,2,0,1
1583443847.6412008,-2,-1,0,13,4,-1,-1,0
1583443847.6412008,0,0,-4,-9,23,-3,-7,2
1583443847.6506622,-2,4,0,2,-17,-3,-1,1
1583443847.6506622,-4,3,-8,-24,-22,-8,-2,-3
1583443847.6643825,0,-4,-5,12,6,0,0,2
1583443847.6643825,3,1,15,8,9,6,7,5
1583443847.674713,-9,-3,-17,-34,-53,1,-7,-14
1583443847.674713,-3,4,2,-9,-5,-16,-3,-4
1583443847.688171,2,0,3,-11,2,-4,3,2
1583443847.688171,-1,-3,2,16,17,-4,-5,-1
1583443847.6961029,0,2,2,6,1,3,-2,-2
1583443847.6961029,1,1,-6,-2,-28,-1,-3,-1
1583443847.7020986,-2,-2,1,18,-9,-1,-4,2
1583443847.7020986,-2,-3,5,-2,8,-3,-4,-1
1583443847.7105446,-4,3,1,-1,0,6,3,0
1583443847.7105446,-2,1,5,8,-10,-6,2,2
1583443847.7242405,4,1,-3,10,-1,-1,0,2
1583443847.7242405,-5,-5,-12,-17,-32,-7,-7,-8
1583443847.7349844,0,2,-2,-17,3,-5,-3,-1
1583443847.7349844,1,3,2,8,-6,5,2,1
1583443847.7486072,-1,-5,6,19,6,-3,-4,-3
1583443847.7486072,-3,3,4,-4,-19,-6,1,6
1583443847.7547548,4,2,-2,-2,-40,1,1,2
1583443847.7547548,-3,1,-8,-8,27,5,-1,-2
1583443847.761306,1,-3,6,8,26,0,0,0
1583443847.761306,-4,-5,-6,-18,7,-6,-3,-5
1583443847.7710211,0,5,1,7,-10,-5,0,-3
1583443847.7710211,0,-3,-3,-14,8,0,2,3
1583443847.7846236,2,-1,13,12,0,16,6,6
1583443847.7846236,-2,-2,3,40,30,-8,-7,-4
1583443847.7942805,-6,-1,-2,-31,-27,-5,-7,-10
1583443847.7942805,2,3,10,15,19,0,-2,-1
1583443847.8082654,-1,-8,-14,-19,-21,-1,-4,1
1583443847.8082654,5,1,0,3,4,2,6,7
1583443847.815499,-4,4,2,1,28,1,1,-1
1583443847.815499,0,2,9,37,-7,0,-4,-3
1583443847.8217974,2,1,7,1,13,5,1,0
1583443847.8217974,3,-2,-6,-3,15,6,8,6
1583443847.830889,0,1,-17,-37,-36,-8,-4,-3
1583443847.830889,2,2,6,2,-6,9,1,0
1583443847.844418,2,-2,5,14,27,7,5,2
1583443847.844418,-3,-9,-11,10,-13,-1,-2,-3
1583443847.854508,4,11,5,18,36,3,1,-2
1583443847.854508,1,-3,-10,-58,-59,-10,-6,-1
1583443847.8685718,-6,-11,7,70,11,1,5,-4
1583443847.8685718,-6,-8,-12,-59,21,-3,-5,-6
1583443847.8744035,-1,7,3,14,-18,2,1,-1
1583443847.8744035,-2,-3,-2,2,13,5,0,-5
1583443847.8817613,4,-1,-8,-6,-8,-3,3,4
1583443847.8817613,6,11,0,22,13,9,5,8
1583443847.8918233,2,6,14,43,57,39,12,5
1583443847.8918233,-6,-7,-14,-20,-30,-13,-9,-8
1583443847.9045372,-1,-4,-6,-32,-3,-10,-3,1
1583443847.9045372,3,0,17,70,9,6,1,3
1583443847.9145737,-6,3,4,-13,-16,-5,-3,-9
1583443847.9145737,-8,-13,-20,-1,5,-9,-12,-13
1583443847.9283454,5,11,3,13,-17,-9,-1,5
1583443847.9283454,-3,1,-15,-33,-1,4,-7,-4
1583443847.9341104,4,-4,-12,-8,4,-5,5,-1
1583443847.9341104,9,26,23,-15,11,8,4,3
1583443847.9417937,-5,27,-8,85,45,9,-1,-1
1583443847.9417937,9,4,0,-24,26,0,6,11
1583443847.9511793,-4,-1,-6,-44,-57,-16,-9,-9
1583443847.9511793,5,4,6,-5,-2,5,8,8
1583443847.964356,8,8,12,44,0,-5,5,9
1583443847.964356,-8,-7,-26,5,-61,-11,-3,-9
1583443847.97441,-1,5,2,-49,-43,-2,-2,-4
1583443847.97441,-1,-12,-1,81,5,-1,3,-4
1583443847.9875906,6,-16,-13,-19,-19,-22,-11,4
1583443847.9875906,-9,15,19,127,100,15,8,3
1583443847.9939523,3,8,12,-56,-41,-12,1,0
1583443847.9939523,4,3,0,21,-21,-1,7,4
1583443848.0019767,6,-8,-9,33,44,7,-2,1
1583443848.0019767,0,10,4,22,-8,-11,2,3
1583443848.0111277,8,6,21,48,79,5,6,7
1583443848.0111277,-1,1,5,34,17,23,1,-5
1583443848.024596,2,0,11,-27,-27,-10,-5,-1
1583443848.024596,-2,-17,-40,-46,-2,-11,-4,6
1583443848.0343647,-6,-3,-6,5,-99,-14,-6,-10
1583443848.0343647,4,18,17,127,35,21,11,4
1583443848.0476546,-7,0,26,-40,96,18,-6,-8
1583443848.0476546,-5,-2,8,5,-47,5,2,2
1583443848.0537446,-7,-5,-36,-6,-42,-17,-7,-8
1583443848.0537446,-7,1,-1,89,100,-16,-7,-1
1583443848.0709288,11,6,16,-128,-45,18,12,13
1583443848.0709288,-6,-11,17,34,127,9,-5,-7
1583443848.076699,5,4,2,119,38,4,3,-1
1583443848.076699,-1,11,18,-31,26,10,-4,-4
1583443848.0837145,3,-15,16,-28,10,6,6,11
1583443848.0837145,-15,-19,-20,0,-10,-6,-4,-4
1583443848.0939977,9,30,13,-128,-82,5,5,-4
1583443848.0939977,11,12,6,-128,5,1,4,5
1583443848.107614,-5,-17,6,-41,-35,-6,-5,-1
1583443848.107614,1,0,3,-128,16,-7,-6,1
1583443848.1141934,6,-1,33,2,-9,-19,-3,1
1583443848.1141934,-2,7,6,72,34,-8,-8,-9
1583443848.1310947,3,6,23,-91,33,4,-1,3
1583443848.1310947,3,-3,-1,2,3,8,3,6
1583443848.137387,7,6,19,89,-35,-10,-1,-2
1583443848.137387,-6,-7,-2,94,-46,8,-1,-1
1583443848.1447046,-6,-1,-12,-69,-125,-34,-10,-7
1583443848.1447046,1,0,3,24,59,11,6,4
1583443848.153499,2,-5,-18,-43,-52,-11,2,1
1583443848.153499,-1,2,15,127,10,10,-3,-4
1583443848.1677985,7,10,12,-7,-15,-18,0,2
1583443848.1677985,-1,2,24,39,57,42,8,0
1583443848.174304,2,3,-3,65,19,8,7,3
1583443848.174304,-5,-4,2,-90,-51,-11,-7,-7
1583443848.1986623,5,-6,-9,127,44,25,6,6
1583443848.1986623,4,6,13,-86,33,6,2,6
1583443848.2055929,0,3,56,51,-99,6,-2,-6
1583443848.2055929,-3,5,-10,88,-24,-21,-6,-3
1583443848.2096906,8,10,9,-17,75,48,10,4
1583443848.2096906,9,8,22,-128,-31,-14,10,19
1583443848.2141566,-8,-2,-19,62,-29,-13,-11,-17
1583443848.2141566,1,-2,8,43,43,63,8,2
1583443848.2267976,-10,-6,3,-23,-9,-30,-14,-12
1583443848.2267976,-4,-17,-48,-128,-69,-20,-15,-7
1583443848.2337856,-14,-18,-9,-128,33,-36,-10,-6
1583443848.2337856,2,8,33,127,3,7,-4,-2
1583443848.2502644,12,8,38,-120,26,21,14,16
1583443848.2502644,9,8,-4,-88,-87,-23,-1,9
1583443848.2566578,-3,10,33,30,-23,14,6,-6
1583443848.2566578,-5,-9,-13,-98,38,-5,-4,-5
1583443848.2641437,4,9,6,-85,-39,-3,-3,1
1583443848.2641437,-10,-9,-30,43,-50,-32,-13,-9
1583443848.273441,5,9,7,-54,-35,7,-1,-3
1583443848.273441,-14,-15,-16,127,127,-36,-18,-15
1583443848.2874231,-24,-33,-52,48,127,116,-8,-23
1583443848.2874231,3,2,0,-108,-28,-29,-3,2
1583443848.2945848,-4,-1,6,1,-18,-33,-6,-8
1583443848.2945848,-7,4,-3,50,-47,-16,-8,-6
1583443848.3109827,12,7,26,-128,-55,10,13,15
1583443848.3109827,-8,2,-15,-10,-8,-24,-17,-14
1583443848.3175907,-3,-6,-18,-39,-79,6,-2,-8
1583443848.3175907,7,10,23,-128,-91,-38,-2,2
1583443848.324336,-32,-31,-60,69,-48,-4,-25,-33
1583443848.324336,8,7,2,-18,-41,-20,4,9
1583443848.3333669,0,6,9,-110,-63,-33,-13,-10
1583443848.3333669,2,-10,-25,25,127,19,4,7
1583443848.3487833,8,11,20,-113,-81,-25,-1,9
1583443848.3487833,3,17,51,16,5,-11,3,-4
1583443848.3534245,-5,6,-15,-12,-105,-22,-8,-4
1583443848.3534245,4,5,4,-60,81,-12,1,7
1583443848.3696413,7,-1,22,-69,-33,-12,-4,1
1583443848.3696413,-1,-2,-5,-5,1,8,2,1
1583443848.3724854,3,5,7,127,87,25,5,1
1583443848.3724854,4,3,6,-40,10,15,10,7
1583443848.3836298,15,8,-3,-128,-22,-17,6,20
1583443848.3836298,-6,-5,-14,67,-1,32,3,-7
1583443848.393652,4,-7,0,35,17,51,19,9
1583443848.393652,-1,7,14,-23,-16,-15,-7,-6
1583443848.4079156,-3,-6,-3,80,45,55,12,3
1583443848.4079156,-3,-7,-5,23,51,-10,-4,-5
1583443848.414155,0,3,-7,2,-52,-15,-10,-10
1583443848.414155,6,3,3,6,22,9,11,10
1583443848.4310412,9,8,15,-69,-21,-22,3,12
1583443848.4310412,4,1,0,-78,-19,-16,-9,0
1583443848.4370174,-6,2,1,78,26,9,-4,-7
1583443848.4370174,5,6,27,-48,-20,-4,6,6
1583443848.4438214,-1,14,44,-99,-17,-5,-7,-2
1583443848.4438214,-3,-2,-17,23,-45,-1,-3,-4
1583443848.45361,-6,-4,17,127,92,12,-8,-13
1583443848.45361,-3,0,2,-74,-29,-11,-7,-7
1583443848.467447,-4,-19,-29,20,-44,3,5,2
1583443848.467447,0,-1,-7,-48,-20,-24,-6,2
1583443848.474095,8,8,8,-10,6,23,9,5
1583443848.474095,-1,0,-5,-12,-6,-15,-6,-4
1583443848.4909818,4,-4,-1,82,17,42,7,5
1583443848.4909818,-3,-4,-16,106,-8,0,-3,5
1583443848.497053,16,11,0,-36,-17,9,22,12
1583443848.497053,-12,-24,-52,-2,-65,-15,-12,-12
1583443848.5049577,-10,0,-12,-26,25,-28,-7,-6
1583443848.5049577,13,9,13,-113,3,-19,5,10
1583443848.5146804,0,9,20,127,3,29,9,-2
1583443848.5146804,3,-1,-17,4,-49,-18,1,2
1583443848.5274537,8,1,3,-93,-11,-5,2,8
1583443848.5274537,-17,-4,17,33,-14,1,-13,-15
1583443848.534049,1,-1,-11,28,52,-2,2,3
1583443848.534049,-5,3,-9,-72,2,-23,-5,-3
1583443848.550966,-1,1,4,28,-46,-10,-6,-4
1583443848.550966,13,2,18,-128,0,-33,-1,13
1583443848.5578504,-25,-17,-47,127,127,77,-4,-23
1583443848.5578504,-3,6,11,-45,-16,-27,-9,-5
1583443848.5637949,-4,-11,-6,-43,3,-8,-8,-8
1583443848.5637949,-7,-15,-38,37,-6,-9,-8,-3
1583443848.573421,1,7,10,-55,-9,2,-5,0
1583443848.573421,14,-5,-12,-88,37,39,23,26
1583443848.5875485,4,12,17,94,-36,21,14,3
1583443848.5875485,7,7,13,-18,-2,-17,-2,0
1583443848.594168,-7,-9,-28,-24,0,-5,-10,-6
1583443848.594168,-1,3,-5,38,-68,-4,3,0
1583443848.6106398,9,-1,3,-36,16,10,8,9
1583443848.6106398,-4,-9,-28,5,28,-20,-10,-5
1583443848.6169038,4,13,5,-100,-27,-1,2,-7
1583443848.6169038,7,8,11,-128,-77,-35,-3,6
1583443848.6245508,-26,-22,3,47,54,-47,-36,-28
1583443848.6245508,-1,2,12,68,39,-54,-8,-4
1583443848.6334667,12,3,-25,-22,-29,4,14,12
1583443848.6334667,2,3,7,3,-25,-6,0,-2
1583443848.6476603,7,2,8,-54,-31,-9,0,7
1583443848.6476603,7,2,-2,0,-30,13,10,13
1583443848.6547709,-1,5,4,0,64,-17,0,-2
1583443848.6547709,-5,-4,2,9,28,-8,-14,-9
1583443848.670068,3,-3,-5,127,29,9,12,9
1583443848.670068,2,6,2,-47,-28,-9,3,2
1583443848.6760015,-2,-6,-12,127,117,30,0,-1
1583443848.6760015,-5,-1,7,10,-20,-11,-5,-10
1583443848.6838367,-26,-32,-58,6,0,-13,-18,-19
1583443848.6838367,4,9,12,-19,22,-3,1,6
1583443848.692275,-3,-4,-5,-19,17,14,0,-4
1583443848.692275,1,4,24,127,65,52,2,-1
1583443848.7070458,7,7,11,-43,41,4,18,13
1583443848.7070458,-2,-1,20,-80,-24,-33,-8,-2
1583443848.7214513,-4,-6,-22,42,39,8,-2,-3
1583443848.7214513,0,7,20,37,10,5,-5,-5
1583443848.7306511,2,-1,-4,73,-32,5,4,1
1583443848.7306511,8,2,0,-100,-30,-3,7,8
1583443848.7365723,5,4,-10,-40,-18,-13,-2,-1
1583443848.7365723,11,15,27,-108,-49,-3,7,10
1583443848.743746,-11,-8,20,9,-4,-3,-5,-8
1583443848.743746,-18,-14,-35,67,-32,-29,-20,-22
1583443848.7536526,8,6,4,-61,-2,-13,1,2
1583443848.7536526,-12,-9,-36,-53,21,-15,-18,-10
1583443848.7676299,-1,-2,9,70,122,18,5,2
1583443848.7676299,-4,-5,-13,-57,5,-6,-8,-7
1583443848.7743673,-1,4,3,-45,2,5,2,0
1583443848.7743673,1,0,4,-45,33,2,-3,1
1583443848.7906308,-1,-8,-1,127,23,25,5,4
1583443848.7906308,-4,0,2,58,-38,-10,0,-4
1583443848.796288,-5,5,7,-34,-11,-5,-4,-6
1583443848.796288,3,0,-2,9,27,18,2,4
1583443848.803567,-4,0,1,76,2,-7,-3,-1
1583443848.803567,4,10,17,39,34,-44,-10,2
1583443848.8137176,0,2,-13,2,6,71,15,4
1583443848.8137176,10,17,32,-128,-53,-28,-3,4
1583443848.8273542,-7,-3,-6,114,-36,-7,-6,-9
1583443848.8273542,9,4,5,-40,-4,-16,-1,5
1583443848.8341484,6,1,-3,-72,32,5,9,4
1583443848.8341484,2,0,3,58,27,-17,-3,3
1583443848.8499734,-7,-5,-10,69,1,3,-3,-7
1583443848.8499734,5,-4,-8,-4,-5,5,5,9
1583443848.856269,-2,-3,-14,-75,-67,-23,-10,-2
1583443848.856269,2,3,16,56,91,0,1,-1
1583443848.8638504,-5,-3,7,5,-11,-7,-6,-5
1583443848.8638504,2,3,6,-51,15,10,6,3
1583443848.8741283,1,1,-18,83,0,9,-1,-1
1583443848.8741283,0,-3,2,-55,33,-18,-6,-4
1583443848.8875196,1,0,3,-12,3,38,8,3
1583443848.8875196,1,2,4,-26,-19,4,1,5
1583443848.8941529,-6,-3,-5,14,-43,-27,-9,-8
1583443848.8941529,7,8,3,3,-30,45,14,10
1583443848.9105356,-8,-6,-7,34,-58,-14,-4,-5
1583443848.9105356,0,-2,-4,-35,-25,-1,0,3
1583443848.9167526,-1,1,-1,-33,-17,5,-4,-8
1583443848.9167526,-7,-8,-2,95,49,0,-8,-13
1583443848.9242435,1,1,7,25,0,-33,1,3
1583443848.9242435,-5,-13,-29,-1,-30,3,-3,-7
1583443848.9333298,-13,-13,-22,126,119,6,-9,-12
1583443848.9333298,0,7,8,47,-15,3,-2,-2
1583443848.947578,9,3,4,-91,-14,0,10,10
1583443848.947578,-1,0,1,116,-3,7,-5,-4
1583443848.9548974,-11,-3,-8,-21,-37,-24,-9,-16
1583443848.9548974,0,-1,-2,-96,-6,-3,-6,-1
1583443848.9699342,0,2,5,2,-12,11,-1,0
1583443848.9699342,-3,-8,-8,82,22,-1,2,2
1583443848.9765942,-3,-3,-17,-63,-37,21,-2,-3
1583443848.9765942,1,8,8,12,-116,-19,-5,0
1583443848.9836817,1,-3,-1,-63,-51,-18,2,6
1583443848.9836817,-12,-14,-20,91,62,25,-7,-9
1583443848.9934678,-3,1,-18,36,-7,-22,-7,-5
1583443848.9934678,-1,2,15,-26,11,12,1,-2
1583443849.0073311,4,2,-1,-33,-43,-9,-3,5
1583443849.0073311,1,-3,11,-15,13,-12,2,2
1583443849.0140457,-6,-5,-11,113,50,17,-3,-9
1583443849.0140457,10,6,16,-89,-30,2,0,8
1583443849.029795,-1,1,-7,36,33,2,1,1
1583443849.029795,-5,-4,-10,-25,-34,-6,-9,-4
1583443849.0363238,0,5,-1,-13,0,-10,-5,-3
1583443849.0363238,1,-4,6,-8,22,30,8,7
1583443849.0530653,0,2,4,0,-50,-1,2,3
1583443849.0530653,-5,-2,-10,-32,-8,-33,-7,-1
1583443849.0601451,-1,-2,-13,55,54,87,14,-1
1583443849.0601451,-8,2,10,69,-41,-36,-9,-7
1583443849.0667975,2,3,9,-37,44,-17,-4,2
1583443849.0667975,-7,-5,-7,-7,-30,9,-6,-6
1583443849.0734265,-1,2,4,32,-17,-72,-13,-6
1583443849.0734265,0,9,13,-12,43,51,11,2
1583443849.0898108,-5,-12,-3,31,27,-12,-3,-2
1583443849.0898108,4,3,-4,0,-22,-9,2,7
1583443849.0961423,4,1,-8,-47,-12,13,6,3
1583443849.0961423,4,2,5,-32,12,-1,7,2
1583443849.1128826,5,6,4,64,-14,21,13,12
1583443849.1128826,11,-3,4,-24,53,24,9,11
1583443849.1195874,-11,-1,-18,55,-28,-9,-6,-14
1583443849.1195874,4,2,16,-57,-16,-24,-8,-5
1583443849.126796,-3,0,1,2,-1,-1,1,-2
1583443849.126796,-1,4,4,8,3,0,0,-4
1583443849.1337695,-1,7,2,-49,-13,-4,1,-1
1583443849.1337695,0,-2,3,-6,-27,5,2,1
1583443849.1498492,-6,-6,6,3,-17,5,-3,0
1583443849.1498492,3,3,-7,-21,-46,-20,-1,-1
1583443849.156189,-3,1,2,108,15,79,13,4
1583443849.156189,-2,-1,-2,-60,-5,-20,-10,-6
1583443849.173032,4,0,-8,-71,-18,-8,-1,4
1583443849.173032,3,5,13,-6,-2,-8,0,-1
1583443849.1781425,6,7,13,-5,-1,-18,-1,1
1583443849.1781425,3,-2,-9,-26,-10,21,6,2
1583443849.1871202,-3,-3,0,10,-26,7,1,-4
1583443849.1871202,-2,-4,-8,-32,25,-5,-6,-3
1583443849.1938922,-5,2,-10,3,3,-29,-12,-8
1583443849.1938922,0,0,12,34,-8,-2,1,2
1583443849.2098505,0,1,0,-35,17,19,4,3
1583443849.2098505,4,2,-3,-58,-43,-21,-1,5
1583443849.216584,-8,-6,-5,100,17,0,-8,-14
1583443849.216584,2,9,12,-60,-39,-10,-1,3
1583443849.233259,8,9,13,78,48,-5,3,8
1583443849.233259,-3,2,12,1,17,10,2,4
1583443849.2395427,2,-2,-11,-10,5,8,4,0
1583443849.2395427,2,-4,-7,2,-20,-14,-2,0
1583443849.2469437,-2,-6,-2,36,67,39,5,-1
1583443849.2469437,-4,3,29,-40,-67,-32,-9,-8
1583443849.2535892,-4,-5,-14,-20,-37,3,-3,-3
1583443849.2535892,0,2,9,46,44,30,4,-1
1583443849.2699237,-4,-4,4,7,30,-27,-10,-4
1583443849.2699237,7,2,8,-53,-42,48,19,9
1583443849.2764297,-2,4,-3,-12,-36,-20,-6,-5
1583443849.2764297,-9,-9,-14,22,-20,-34,-16,-6
1583443849.2930503,-5,-4,-3,75,28,8,-2,-2
1583443849.2930503,5,4,1,-38,-2,-11,1,1
1583443849.299237,0,2,-3,32,-16,-9,0,-1
1583443849.299237,-1,-1,-4,-1,1,-6,-6,-1
1583443849.3074353,-1,-6,-5,32,7,0,3,2
1583443849.3074353,-5,3,17,-22,-2,7,3,-4
1583443849.3140798,-5,3,0,-18,-4,-6,-7,-2
1583443849.3140798,-2,0,-1,119,58,-3,-1,-3
1583443849.3298135,2,1,19,-16,0,0,0,0
1583443849.3298135,2,1,9,-20,12,13,2,3
1583443849.3371496,-3,3,4,0,-12,-8,-6,-4
1583443849.3371496,4,2,11,18,7,28,8,5
1583443849.3533192,1,-1,2,20,-26,-28,-7,1
1583443849.3533192,3,7,21,-33,0,43,8,-2
1583443849.3604715,-16,-10,-20,2,64,-15,-13,-16
1583443849.3604715,0,1,2,45,27,23,10,3
1583443849.366937,0,1,1,-33,-41,-42,-9,-3
1583443849.366937,1,4,10,-78,-17,7,5,4
1583443849.373559,-4,-2,-13,14,-7,-15,-8,-5
1583443849.373559,2,0,12,19,-5,13,3,5
1583443849.3893065,-4,-4,2,28,1,2,-6,-5
1583443849.3893065,-2,-3,-2,-27,1,-5,-1,-3
1583443849.3963141,-3,0,0,1,-21,-11,-4,-4
1583443849.3963141,2,-1,0,1,1,-3,0,4
1583443849.4129467,-1,-3,-8,17,-17,-3,-2,0
1583443849.4129467,0,0,-25,-53,-6,-5,-3,4
1583443849.4195175,-1,1,-8,18,-27,-16,-2,-8
1583443849.4195175,-2,0,-1,-5,-24,-6,-5,0
1583443849.427262,3,2,14,-28,7,9,5,7
1583443849.427262,-3,2,-2,-35,-13,-3,-3,-3
1583443849.4336326,1,4,2,-14,17,-3,0,-4
1583443849.4336326,-1,4,4,-44,-32,-11,1,-1
1583443849.4575968,-6,-10,-3,103,21,-4,-4,-8
1583443849.4575968,-1,0,-3,-76,-47,-40,-5,-1
1583443849.4638562,1,1,-1,40,80,74,15,0
1583443849.4638562,2,-1,7,-8,-25,-21,0,1
1583443849.4732056,1,0,17,32,54,51,7,6
1583443849.4732056,-4,-4,-25,-5,-40,-13,-1,-4
1583443849.4787614,2,8,10,-3,9,19,6,-1
1583443849.4787614,-6,-7,-6,13,-6,-15,-7,-7
1583443849.487125,-1,-3,6,-10,-1,3,-1,3
1583443849.487125,-5,-3,0,38,20,-1,-3,-6
1583443849.4938934,-10,-6,-17,-21,-9,-10,-9,-8
1583443849.4938934,0,-1,4,35,-15,-1,-1,-2
1583443849.509796,-3,-5,-9,-37,9,-3,-5,1
1583443849.509796,8,9,21,-10,-10,-13,5,4
1583443849.516551,-9,-8,-27,98,28,7,-3,-11
1583443849.516551,-3,-1,-4,-19,-1,-19,-1,-1
1583443849.5332963,2,0,12,-17,-99,-15,-1,0
1583443849.5332963,-19,-16,-36,127,89,40,-7,-15
1583443849.539191,0,3,6,3,14,-40,-3,-7
1583443849.539191,1,-1,3,-49,-31,4,1,1
1583443849.5463874,4,-2,2,-16,-9,-12,-1,7
1583443849.5463874,-5,-2,-8,-24,8,-4,-6,-6
1583443849.5571976,4,5,10,-18,-10,-8,1,1
1583443849.5571976,0,0,7,46,41,16,3,1
1583443849.5706303,2,6,2,-15,-10,-2,0,3
1583443849.5706303,0,2,18,-28,-15,5,2,0
1583443849.5768268,-3,1,-4,-5,-5,-14,-1,-4
1583443849.5768268,0,-1,0,-12,-9,-8,0,2
1583443849.5936897,-3,-1,-11,-21,2,-1,1,-3
1583443849.5936897,6,1,-9,-21,3,-5,4,0
1583443849.5996168,5,0,-11,40,54,49,6,4
1583443849.5996168,1,-2,-7,8,-35,4,3,-1
1583443849.60684,0,-2,2,-12,-5,-7,3,1
1583443849.60684,2,7,10,15,-32,-12,-3,1
1583443849.6169984,-10,-6,-5,42,70,47,0,-3
1583443849.6169984,-3,-3,-9,0,-19,-7,-8,-3
1583443849.630009,0,-6,-4,-35,-3,-2,-4,1
1583443849.630009,-2,-1,-3,-32,-24,-9,-4,-5
1583443849.6365814,0,6,5,2,-2,-5,-2,-4
1583443849.6365814,-1,-1,5,-31,-6,-8,-3,0
1583443849.6534762,-4,-7,-19,64,10,-1,-5,-5
1583443849.6534762,-1,-3,-10,15,5,20,8,1
1583443849.6597016,1,3,4,-45,-40,-4,-3,-5
1583443849.6597016,-5,-4,-3,28,-5,-9,-9,-8
1583443849.6671085,-8,-14,-16,-20,12,-19,-6,-8
1583443849.6671085,1,3,7,23,-8,-2,1,2
1583443849.6761096,-1,0,-2,-24,-10,-9,-6,-6
1583443849.6761096,2,1,-2,-26,-13,-13,0,1
1583443849.690101,-11,-10,-27,38,1,-5,-5,-5
1583443849.690101,3,1,-4,-7,-1,0,1,-2
1583443849.6968272,-2,2,5,-18,-41,-7,-1,-4
1583443849.6968272,2,1,4,-19,17,-3,-1,5
1583443849.7131202,2,-5,-8,6,-9,2,0,2
1583443849.7131202,-1,2,1,-15,-7,0,2,0
1583443849.7184253,-3,1,-5,-25,-8,-10,-5,-5
1583443849.7184253,2,3,3,8,0,7,4,3
1583443849.7269192,1,-4,2,0,-3,-10,-2,2
1583443849.7269192,-3,-1,-6,-42,-9,2,-1,-4
1583443849.736608,4,2,-5,5,5,8,6,1
1583443849.736608,-6,-2,10,85,29,8,-5,-6
1583443849.7500112,-4,-10,-12,-30,-4,-2,-6,-3
1583443849.7500112,-5,-7,-16,-20,38,-9,-9,-4
1583443849.756572,-3,-2,-4,-2,-5,-8,-4,-7
1583443849.756572,1,0,0,-4,1,5,0,-1
1583443849.7730532,-1,-4,3,-1,-2,2,2,1
1583443849.7730532,-2,3,-3,-11,-7,-1,0,1
1583443849.7791038,0,2,-1,-1,-13,0,-3,-2
1583443849.7791038,0,-4,0,-3,9,3,2,-1
1583443849.786512,-6,-6,-13,24,-10,-9,-7,-8
1583443849.786512,2,1,0,-10,-8,-4,2,1
1583443849.7953742,-1,5,2,6,-5,-3,0,-2
1583443849.7953742,-2,-3,0,8,0,5,2,-2
1583443849.809917,1,-5,1,5,-1,0,-2,2
1583443849.809917,1,1,-5,-16,-8,-2,1,0
1583443849.8162596,1,2,0,-16,-35,-11,-6,-2
1583443849.8162596,-3,-4,0,66,44,12,-1,0
1583443849.8335338,-2,-2,0,-15,-36,-4,1,3
1583443849.8335338,-1,-2,-2,-8,5,-7,-5,1
1583443849.8396864,2,5,-1,-9,-9,-2,2,-4
1583443849.8396864,0,-3,-3,-10,-17,-10,-1,-1
1583443849.8463573,0,1,4,6,7,4,0,1
1583443849.8463573,0,0,-5,-19,26,-16,1,1
1583443849.8564322,0,11,-2,-3,-11,8,6,-3
1583443849.8564322,-1,1,3,-2,-8,-14,0,2
1583443849.870314,-2,-2,3,-1,-5,-13,-5,-1
1583443849.870314,-1,0,-2,-12,-9,-6,-3,-5
1583443849.877461,4,1,1,-4,-38,-47,-14,-6
1583443849.877461,-2,-3,-4,18,6,41,18,7
1583443849.893455,-7,-2,5,27,25,77,23,7
1583443849.893455,1,2,-3,-18,-15,-12,-3,-7
1583443849.8997655,1,-12,-2,-5,-8,-11,-2,-8
1583443849.8997655,5,12,3,7,-3,-11,1,18
1583443849.906756,-1,20,7,7,3,-2,1,-1
1583443849.906756,-1,-1,-10,-25,-5,-2,-1,-2
1583443849.9156451,1,10,4,27,-1,7,-1,-4
1583443849.9156451,-3,-8,-6,8,12,0,0,-1
1583443849.92962,-1,8,5,-11,3,-5,-3,-2
1583443849.92962,-13,-15,-14,-27,-10,-1,-2,-5
1583443849.9362793,14,-9,11,7,-2,5,8,19
1583443849.9362793,-3,67,16,4,1,-4,-7,-8
1583443849.9526722,2,-62,-7,-9,-3,2,2,0
1583443849.9526722,-3,13,-4,1,-6,0,0,1
1583443849.959181,-3,-9,-8,-4,-2,0,-2,-7
1583443849.959181,2,0,1,3,5,-2,4,-2
1583443849.9761422,-1,2,-4,6,1,-2,2,5
1583443849.9761422,-1,4,-9,-26,-3,-2,-1,-3
1583443849.982214,2,21,9,22,0,0,-1,2
1583443849.982214,-8,-34,-7,20,13,3,1,4
1583443849.9902945,5,-2,2,-18,-1,5,2,7
1583443849.9902945,0,31,0,3,-9,-5,0,-5
1583443849.996239,-8,-37,-7,-24,-8,0,-7,-6
1583443849.996239,-1,11,-9,22,-4,-1,9,1
1583443850.0122802,-6,2,23,-28,-3,-20,-9,-6
1583443850.0122802,-1,-24,-19,34,-9,19,0,-7
1583443850.018813,-1,0,-11,-8,-4,0,1,-1
1583443850.018813,-5,0,6,12,62,-6,-2,-3
1583443850.036072,7,-11,-1,4,-26,-4,-4,-3
1583443850.036072,-6,-18,-27,-10,4,-1,2,-2
1583443850.0433974,-9,-22,-17,-30,0,1,-3,-1
1583443850.0433974,9,-32,-14,16,-2,-1,5,2
1583443850.0491233,-14,-19,-3,7,-9,-4,7,-6
1583443850.0491233,4,-21,-9,-10,-1,3,-7,3
1583443850.0563912,1,7,-8,-2,-5,-1,-8,-6
1583443850.0563912,1,2,2,-1,4,2,-2,0
1583443850.0721867,-1,0,3,5,-1,-7,-2,-4
1583443850.0721867,2,4,-1,11,1,-1,-2,-5
1583443850.0788887,-5,-5,-20,10,-13,-1,-4,-6
1583443850.0788887,1,-4,2,-1,-2,-2,-3,1
1583443850.0958767,0,-5,1,28,19,0,1,2
1583443850.0958767,-1,4,-3,-11,-6,-9,4,0
1583443850.102303,2,-2,2,-26,-1,15,5,4
1583443850.102303,-3,-1,-5,-49,-1,-1,-3,-2
1583443850.1098254,1,-10,-9,1,1,1,2,3
1583443850.1098254,-4,0,-12,-13,-2,-1,4,0
1583443850.1162016,1,3,-2,16,-1,-1,2,-5
1583443850.1162016,-3,-10,-13,4,4,-4,-2,2
1583443850.132143,1,24,5,2,4,-1,2,2
1583443850.132143,0,9,-5,-19,-3,-1,-2,-3
1583443850.1400757,0,3,11,12,0,1,5,1
1583443850.1400757,0,0,6,-1,15,-6,-6,-1
1583443850.1551507,0,-3,-6,22,0,0,1,5
1583443850.1551507,5,6,-2,15,3,0,5,-2
1583443850.1592486,-9,-4,58,-15,-1,3,-3,-4
1583443850.1592486,-1,-6,-10,31,0,1,2,1
1583443850.168928,1,9,-3,-13,5,-1,-4,3
1583443850.168928,-3,1,3,-4,-5,2,-3,-3
1583443850.1756468,-1,1,10,-59,-4,-5,-1,-1
1583443850.1756468,-1,-4,-9,6,6,9,8,6
1583443850.1914897,-6,-10,-13,-11,-1,-5,-10,-1
1583443850.1914897,7,21,25,1,0,-5,0,-1
1583443850.1981747,-2,3,-7,1,-4,4,0,-5
1583443850.1981747,2,-2,-4,18,9,-15,-7,1
1583443850.2151597,-1,-1,7,5,7,44,9,3
1583443850.2151597,-2,-2,-3,4,0,-4,-1,-2
1583443850.2186248,-3,1,0,19,-11,-13,-8,-6
1583443850.2186248,4,2,4,9,11,-15,-4,-6
1583443850.2283273,-1,-1,-4,-12,-24,9,-2,-1
1583443850.2283273,2,0,0,-5,15,0,4,5
1583443850.2370815,3,6,6,40,1,28,5,-1
1583443850.2370815,2,2,9,-13,13,-16,1,-1
1583443850.2515135,-14,-5,-10,-3,0,19,4,-3
1583443850.2515135,-10,-3,6,37,-2,-9,-7,-4
1583443850.2582433,5,10,9,7,2,-7,-7,-13
1583443850.2582433,-11,-7,17,3,1,-4,-6,-14
1583443850.2746112,2,-17,-22,-31,-8,-1,-2,-26
1583443850.2746112,-11,48,5,-5,-5,-3,-10,-30
1583443850.2773118,8,-42,-5,22,15,7,13,68
1583443850.2773118,3,-24,3,-16,1,-3,-6,10
1583443850.288306,8,19,-8,2,1,-1,-4,-34
1583443850.288306,-5,5,-6,-8,-4,3,4,40
1583443850.2971456,11,11,6,-14,-1,-3,-2,-43
1583443850.2971456,12,-7,-6,5,4,1,3,28
1583443850.3114793,1,-2,5,-3,4,7,2,-9
1583443850.3114793,-4,5,-1,-26,4,-2,-1,-21
1583443850.3181837,-8,-4,1,5,-1,-2,-7,-15
1583443850.3181837,1,-4,-3,-4,-10,4,-2,0
1583443850.3345711,1,-4,-6,-3,9,-2,-1,-4
1583443850.3345711,2,1,-6,-20,-6,-31,-13,-7
1583443850.337186,-12,-12,-3,1,-25,14,3,-7
1583443850.337186,-2,-5,-6,39,60,8,11,6
1583443850.3482652,3,5,-8,-35,-28,-28,-3,-8
1583443850.3482652,-4,-1,-2,-12,-12,-10,-7,-6
1583443850.3631763,-11,-2,-1,-15,-5,-22,-13,-20
1583443850.3631763,1,0,10,48,10,-12,-6,21
1583443850.3713799,31,-6,4,17,-2,-4,13,39
1583443850.3713799,-54,8,-2,-15,-5,3,13,-9
1583443850.3782203,0,-4,0,-34,-19,3,-5,-8
1583443850.3782203,-28,-26,-17,18,11,-5,-25,-128
1583443850.3945975,-113,-1,-3,-18,9,12,19,99
1583443850.3945975,-7,6,13,-41,-30,-6,0,-10
1583443850.3974292,-8,16,16,48,-19,0,-20,-49
1583443850.3974292,21,-3,3,37,25,-55,-14,65
1583443850.4083154,-10,-7,-11,-26,30,-10,-16,-14
1583443850.4083154,7,10,-2,-43,-2,30,21,-8
1583443850.4171078,-6,-9,-6,7,-41,-13,10,12
1583443850.4171078,-21,-3,-9,-30,-17,-16,-8,-5
1583443850.4315705,-6,-9,-6,26,-4,-48,-25,-40
1583443850.4315705,-6,4,-7,-16,-25,34,10,0
1583443850.4381397,11,3,12,-3,10,-25,8,28
1583443850.4381397,43,-5,-3,1,20,14,29,102
1583443850.453696,-20,-1,-3,-8,-47,-13,-20,-117
1583443850.453696,41,3,6,-36,14,-2,13,127
1583443850.4621146,17,9,11,52,27,3,21,75
1583443850.4621146,-56,0,1,3,-24,5,-3,17
1583443850.4682896,-52,-11,-8,7,37,-14,-31,-128
1583443850.4682896,58,4,-3,3,-55,10,27,127
1583443850.4771583,-26,4,8,44,1,7,-1,-51
1583443850.4771583,-18,-11,-10,102,28,0,-5,-3
1583443850.4914277,12,5,11,-46,-3,3,3,25
1583443850.4914277,-9,-6,7,11,33,3,3,-5
1583443850.4981422,14,-1,-11,-68,-15,14,23,35
1583443850.4981422,-20,-10,8,-21,-40,3,3,-16
1583443850.5144985,1,-2,-4,25,-7,-19,-21,-3
1583443850.5144985,4,5,3,-35,-19,-70,-34,23
1583443850.5177822,19,0,-17,71,64,127,41,-32
1583443850.5177822,4,7,10,-8,-34,-36,6,40
1583443850.5282745,-16,-4,-1,-9,79,36,25,-32
1583443850.5282745,1,4,3,-70,-41,-45,-57,-85
1583443850.5371158,26,-2,-5,21,-93,-20,1,51
1583443850.5371158,-9,8,17,114,49,-21,-15,22
1583443850.5519452,8,-5,-14,-80,-21,-28,-19,-27
1583443850.5519452,40,2,-1,-3,-11,0,11,127
1583443850.5596082,27,10,-1,88,-4,2,-25,-60
1583443850.5596082,34,6,31,-73,-25,13,50,127
1583443850.5745907,-29,-7,-28,67,-29,-1,3,2
1583443850.5745907,-33,2,-3,32,59,15,-18,-105
1583443850.5774164,95,5,8,-29,-36,-6,-9,39
1583443850.5774164,52,5,-7,38,-21,10,30,127
1583443850.5881577,-36,4,9,-50,-3,2,-12,-35
1583443850.5881577,17,5,0,80,-29,-13,-9,-13
1583443850.596999,-13,2,-4,-43,-19,8,-6,-40
1583443850.596999,-4,-3,0,23,14,-24,-12,-32
1583443850.6113746,-14,-15,-15,-31,-10,-23,4,4
1583443850.6113746,2,5,3,18,43,74,22,11
1583443850.618118,-5,-1,-8,-4,0,-30,-2,-20
1583443850.618118,-6,-7,0,-1,-11,59,21,15
1583443850.634555,3,1,2,11,-44,-16,12,54
